2096921,2096921,164347,674918,0
2096921,2096921,164355,674758,0
2096921,2096921,164159,674549,0
2096921,2096921,164145,674674,0
2096921,2096921,164065,674707,0
2096921,2096921,164147,674196,0
2096921,2096921,163941,673918,0
2096921,2096921,163900,673805,0
2096921,2096921,163593,673989,0
2096921,2096921,164026,674209,0
2096921,2096921,163624,674376,0
2096921,2096921,163886,674006,0
2096921,2096921,163710,673969,0
2096921,2096921,163668,673540,0
2096921,2096921,163417,673650,0
2096921,2096921,163450,673803,0
2096921,2096921,162927,672735,0
2096921,2096921,162841,672381,0
2096921,2096921,162839,672147,0
2096921,2096921,163088,672284,0
2096921,2096921,162517,672309,0
2096921,2096921,162386,671108,0
2096921,2096921,161995,670763,0
2096921,2096921,161833,670978,0
2096921,2096921,161791,670954,0
2096921,2096921,161840,670616,0
2096921,2096921,161557,669758,0
2096921,2096921,161710,669289,0
2096921,2096921,161451,669096,0
2096921,2096921,161163,669344,0
2096921,2096921,161301,669353,0
2096921,2096921,161116,668788,0
2096921,2096921,161046,668638,0
2096921,2096921,161061,668621,0
2096921,2096921,160885,668738,0
2096921,2096921,161102,668630,0
2096921,2096921,160876,668009,0
2096921,2096921,160756,667985,0
2096921,2096921,160648,667721,0
2096921,2096921,160588,667775,0
2096921,2096921,160602,668026,0
2096921,2096921,160777,667776,0
2096921,2096921,160229,667795,0
2096921,2096921,160330,667831,0
2096921,2096921,160480,667747,0
2096921,2096921,160661,667888,0
2096921,2096921,160268,667742,0
2096921,2096921,160277,667699,0
2096921,2096921,160128,667622,0
2096921,2096921,160175,667516,0
2096921,2096921,160180,667338,0
2096921,2096921,160463,667692,0
2096921,2096921,160613,667932,0
2096921,2096921,160390,667789,0
2096921,2096921,160447,667918,0
2096921,2096921,160426,667682,0
2096921,2096921,160452,668143,0
2096921,2096921,160506,668386,0
2096921,2096921,160133,668254,0
2096921,2096921,160562,667925,0
2096921,2096921,160146,668209,0
2096921,2096921,160524,668197,0
2096921,2096921,160370,668561,0
2096921,2096921,160572,668512,0
2096921,2096921,160370,668373,0
2096921,2096921,160606,668542,0
2096921,2096921,160320,668726,0
2096921,2096921,160589,668884,0
2096921,2096921,160596,668941,0
2096921,2096921,160742,668986,0
2096921,2096921,160645,669306,0
2096921,2096921,160729,669251,0
2096921,2096921,160834,669444,0
2096921,2096921,160872,669401,0
2096921,2096921,161083,669573,0
2096921,2096921,160548,669203,0
2096921,2096921,160520,669750,0
2096921,2096921,161037,669223,0
2096921,2096921,160850,669681,0
2096921,2096921,160603,669652,0
2096921,2096921,160759,669913,0
2096921,2096921,161074,670201,0
2096921,2096921,161230,670517,0
2096921,2096921,161163,670344,0
2096921,2096921,161142,670503,0
2096921,2096921,160942,670324,0
2096921,2096921,161357,670806,0
2096921,2096921,161128,670584,0
2096921,2096921,160909,670842,0
2096921,2096921,161138,670882,0
2096921,2096921,161335,670927,0
2096921,2096921,161761,671452,0
2096921,2096921,161663,671735,0
2096921,2096921,161618,671985,0
2096921,2096921,161672,672016,0
2096921,2096921,161466,672115,0
2096921,2096921,161845,672318,0
2096921,2096921,162047,672645,0
2096921,2096921,162017,672617,0
2096921,2096921,162150,672502,0
2096921,2096921,162302,672643,0
2096921,2096921,162340,673062,0
2096921,2096921,162320,673224,0
2096921,2096921,161968,673410,0
2096921,2096921,162044,673536,0
2096921,2096921,162040,673314,0
2096921,2096921,162211,673942,0
2096921,2096921,162162,673776,0
2096921,2096921,162242,673661,0
2096921,2096921,162152,674013,0
2096921,2096921,162283,673845,0
2096921,2096921,162681,674573,0
2096921,2096921,162601,674720,0
2096921,2096921,162389,674573,0
2096921,2096921,162465,674522,0
2096921,2096921,162735,674321,0
2096921,2096921,162722,674951,0
2096921,2096921,162807,675149,0
2096921,2096921,162956,675035,0
2096921,2096921,163090,675308,0
2096921,2096921,162916,675327,0
2096921,2096921,163277,675927,0
2096921,2096921,163275,676277,0
2096921,2096921,163330,676497,0
2096921,2096921,163275,676364,0
2096921,2096921,163236,676385,0
2096921,2096921,163285,676843,0
2096921,2096921,163196,676962,0
2096921,2096921,163049,676614,0
2096921,2096921,163453,676634,0
2096921,2096921,163259,676719,0
2096921,2096921,163821,677142,0
2096921,2096921,163584,677404,0
2096921,2096921,163481,677593,0
2096921,2096921,163655,677668,0
2096921,2096921,163752,677559,0
2096921,2096921,163803,677866,0
2096921,2096921,163928,677917,0
2096921,2096921,163734,677750,0
2096921,2096921,163908,678185,0
2096921,2096921,163945,678298,0
2096921,2096921,164065,678956,0
2096921,2096921,164300,678633,0
2096921,2096921,164381,678911,0
2096921,2096921,164368,678666,0
2096921,2096921,164126,678666,0
2096921,2096921,164169,678953,0
2096921,2096921,164411,679210,0
2096921,2096921,164189,679195,0
2096921,2096921,164485,679426,0
2096921,2096921,164198,679709,0
2096921,2096921,164861,679932,0
2096921,2096921,164543,679872,0
2096921,2096921,164445,680154,0
2096921,2096921,164319,679909,0
2096921,2096921,164407,679879,0
2096921,2096921,164620,679999,0
2096921,2096921,164351,680140,0
2096921,2096921,164355,680125,0
2096921,2096921,164560,680142,0
2096921,2096921,164391,680311,0
2096921,2096921,164730,680483,0
2096921,2096921,164709,680837,0
2096921,2096921,164717,680735,0
2096921,2096921,164886,680857,0
2096921,2096921,164733,680668,0
2096921,2096921,164776,681092,0
2096921,2096921,164632,681022,0
2096921,2096921,164971,681029,0
2096921,2096921,164833,681089,0
2096921,2096921,164824,681144,0
2096921,2096921,165001,681197,0
2096921,2096921,165008,681326,0
2096921,2096921,164879,681700,0
2096921,2096921,164914,681689,0
2096921,2096921,164852,681402,0
2096921,2096921,164913,681783,0
2096921,2096921,164914,681743,0
2096921,2096921,164657,681605,0
2096921,2096921,164538,681776,0
2096921,2096921,164896,681465,0
2096921,2096921,165063,681712,0
2096921,2096921,165269,681536,0
2096921,2096921,165067,681916,0
2096921,2096921,165104,681907,0
2096921,2096921,164755,682301,0
2096921,2096921,165004,681956,0
2096921,2096921,164629,682154,0
2096921,2096921,164730,681634,0
2096921,2096921,164923,681691,0
2096921,2096921,164715,681983,0
2096921,2096921,165049,682196,0
2096921,2096921,165115,682192,0
2096921,2096921,165159,682238,0
2096921,2096921,164994,682274,0
2096921,2096921,164709,682458,0
2096921,2096921,164758,682186,0
2096921,2096921,165008,682183,0
2096921,2096921,164685,682238,0
2096921,2096921,165168,682517,0
2096921,2096921,165130,682568,0
2096921,2096921,165017,682736,0
2096921,2096921,165047,682693,0
2096921,2096921,165120,682734,0
2096921,2096921,164880,682651,0
2096921,2096921,164964,682825,0
2096921,2096921,165238,682668,0
2096921,2096921,165347,682862,0
2096921,2096921,165097,682819,0
2096921,2096921,165195,682859,0
2096921,2096921,164895,682978,0
2096921,2096921,165346,682883,0
2096921,2096921,165193,682991,0
2096921,2096921,165649,683111,0
2096921,2096921,165219,683378,0
2096921,2096921,165401,683093,0
2096921,2096921,165626,683428,0
2096921,2096921,165463,683385,0
2096921,2096921,165582,683303,0
2096921,2096921,165516,683439,0
2096921,2096921,165233,683525,0
2096921,2096921,165352,683733,0
2096921,2096921,165409,683859,0
2096921,2096921,165542,683862,0
2096921,2096921,165713,684075,0
2096921,2096921,165498,683758,0
2096921,2096921,165407,684343,0
2096921,2096921,165405,684617,0
2096921,2096921,165593,684260,0
2096921,2096921,165348,684496,0
2096921,2096921,165588,684568,0
2096921,2096921,165366,684537,0
2096921,2096921,165893,684917,0
2096921,2096921,165817,684927,0
2096921,2096921,165938,684907,0
2096921,2096921,165781,684723,0
2096921,2096921,165991,685244,0
2096921,2096921,165900,685389,0
2096921,2096921,166010,685212,0
2096921,2096921,165800,685529,0
2096921,2096921,166232,685462,0
2096921,2096921,166011,685534,0
2096921,2096921,166133,685863,0
2096921,2096921,166294,686025,0
2096921,2096921,165994,685973,0
2096921,2096921,166006,685833,0
2096921,2096921,166314,686311,0
2096921,2096921,166138,686424,0
2096921,2096921,166490,686135,0
2096921,2096921,166384,686249,0
2096921,2096921,166211,686049,0
2096921,2096921,166605,686777,0
2096921,2096921,166523,686633,0
2096921,2096921,166630,686603,0
2096921,2096921,166245,686385,0
2096921,2096921,166356,686627,0
2096921,2096921,166675,686992,0
2096921,2096921,166618,686891,0
2096921,2096921,166714,686936,0
2096921,2096921,166510,687337,0
2096921,2096921,166560,687097,0
2096921,2096921,166770,687337,0
2096921,2096921,166722,687588,0
2096921,2096921,167056,687452,0
2096921,2096921,166852,687726,0
2096921,2096921,166913,687574,0
2096921,2096921,166922,687712,0
2096921,2096921,167045,687952,0
2096921,2096921,167003,688034,0
2096921,2096921,167282,687830,0
2096921,2096921,166970,687657,0
2096921,2096921,166981,688225,0
2096921,2096921,167071,688175,0
2096921,2096921,167061,688370,0
2096921,2096921,167122,688144,0
2096921,2096921,167191,688463,0
2096921,2096921,167077,689180,0
2096921,2096921,167414,688746,0
2096921,2096921,167278,688749,0
2096921,2096921,167393,688608,0
2096921,2096921,167445,688655,0
2096921,2096921,167498,689191,0
2096921,2096921,167610,689099,0
2096921,2096921,167017,689219,0
2096921,2096921,167207,689381,0
2096921,2096921,167146,689258,0
2096921,2096921,167428,689390,0
2096921,2096921,167405,689669,0
2096921,2096921,167256,689906,0
2096921,2096921,167394,689751,0
2096921,2096921,167291,689640,0
2096921,2096921,167481,689909,0
2096921,2096921,167758,689925,0
2096921,2096921,167521,690003,0
2096921,2096921,167610,690015,0
2096921,2096921,167302,689795,0
2096921,2096921,167753,690017,0
2096921,2096921,167704,690076,0
2096921,2096921,167759,689988,0
2096921,2096921,167725,690029,0
2096921,2096921,167783,689794,0
2096921,2096921,167794,690320,0
2096921,2096921,167753,690817,0
2096921,2096921,167846,690840,0
2096921,2096921,167924,690773,0
2096921,2096921,168038,690752,0
2096921,2096921,168099,690922,0
2096921,2096921,168259,691143,0
2096921,2096921,168136,690815,0
2096921,2096921,167995,690912,0
2096921,2096921,167907,691238,0
2096921,2096921,168045,691152,0
2096921,2096921,168178,691410,0
2096921,2096921,167985,691772,0
2096921,2096921,168084,691365,0
2096921,2096921,168463,691295,0
2096921,2096921,168426,691307,0
2096921,2096921,168200,691313,0
2096921,2096921,167851,691534,0
2096921,2096921,168202,691155,0
2096921,2096921,168128,691488,0
2096921,2096921,168090,691978,0
2096921,2096921,168227,691893,0
2096921,2096921,168543,692078,0
2096921,2096921,168173,691995,0
2096921,2096921,168223,691937,0
2096921,2096921,168216,692031,0
2096921,2096921,168648,692117,0
2096921,2096921,168643,691878,0
2096921,2096921,168618,691888,0
2096921,2096921,168411,692100,0
2096921,2096921,168674,692402,0
2096921,2096921,168430,692310,0
2096921,2096921,168549,692508,0
2096921,2096921,168277,692751,0
2096921,2096921,168708,692440,0
2096921,2096921,168404,692516,0
2096921,2096921,168867,692636,0
2096921,2096921,168333,692657,0
2096921,2096921,168476,692678,0
2096921,2096921,168737,692647,0
2096921,2096921,168745,692785,0
2096921,2096921,168868,692893,0
2096921,2096921,168665,692818,0
2096921,2096921,168683,693005,0
2096921,2096921,168430,692705,0
2096921,2096921,168793,693194,0
2096921,2096921,168800,693127,0
2096921,2096921,168645,692822,0
2096921,2096921,168905,692994,0
2096921,2096921,168838,693242,0
2096921,2096921,168736,693147,0
2096921,2096921,168978,693326,0
2096921,2096921,168959,693603,0
2096921,2096921,168962,693428,0
2096921,2096921,169157,693027,0
2096921,2096921,168807,693824,0
2096921,2096921,168702,693347,0
2096921,2096921,168707,693445,0
2096921,2096921,168772,693179,0
2096921,2096921,168926,693319,0
2096921,2096921,168960,693288,0
2096921,2096921,169075,693633,0
2096921,2096921,169050,693552,0
2096921,2096921,168841,693558,0
2096921,2096921,168937,693480,0
2096921,2096921,168915,693588,0
2096921,2096921,168705,693592,0
2096921,2096921,169079,693595,0
2096921,2096921,168868,693816,0
2096921,2096921,169040,693593,0
2096921,2096921,168844,693775,0
2096921,2096921,168931,694080,0
2096921,2096921,169182,694197,0
2096921,2096921,169114,694083,0
2096921,2096921,168911,693986,0
2096921,2096921,168820,694211,0
2096921,2096921,168903,694098,0
2096921,2096921,169116,693974,0
2096921,2096921,168872,693928,0
2096921,2096921,168901,694010,0
2096921,2096921,169191,694140,0
2096921,2096921,169076,693873,0
2096921,2096921,169315,694144,0
2096921,2096921,169185,694024,0
2096921,2096921,169336,693857,0
2096921,2096921,169140,693704,0
2096921,2096921,169307,694039,0
2096921,2096921,169138,693975,0
2096921,2096921,169163,694278,0
2096921,2096921,168955,694094,0
2096921,2096921,169231,694273,0
2096921,2096921,169160,694470,0
2096921,2096921,168971,694288,0
2096921,2096921,169217,694109,0
2096921,2096921,169384,694193,0
2096921,2096921,169194,694189,0
2096921,2096921,169426,694188,0
2096921,2096921,169414,694242,0
2096921,2096921,169311,694038,0
2096921,2096921,169268,694310,0
2096921,2096921,169513,694303,0
2096921,2096921,169382,694600,0
2096921,2096921,169295,694313,0
2096921,2096921,169243,694394,0
2096921,2096921,169458,694311,0
2096921,2096921,169332,694257,0
2096921,2096921,169290,694190,0
2096921,2096921,169398,694366,0
2096921,2096921,169247,694659,0
2096921,2096921,169541,694285,0
2096921,2096921,169541,694293,0
2096921,2096921,169779,694625,0
2096921,2096921,169440,694628,0
2096921,2096921,169307,694286,0
2096921,2096921,169401,694725,0
2096921,2096921,169494,694519,0
2096921,2096921,169167,694677,0
2096921,2096921,169324,694729,0
2096921,2096921,169260,694672,0
2096921,2096921,169304,694513,0
2096921,2096921,169485,694661,0
2096921,2096921,169131,694950,0
2096921,2096921,169500,694846,0
2096921,2096921,169486,694779,0
2096921,2096921,169417,694718,0
2096921,2096921,168998,694675,0
2096921,2096921,169391,694850,0
2096921,2096921,169510,694669,0
2096921,2096921,169543,694605,0
2096921,2096921,169650,694604,0
2096921,2096921,169602,694248,0
2096921,2096921,169578,694427,0
2096921,2096921,169859,694916,0
2096921,2096921,169336,694963,0
2096921,2096921,169288,694657,0
2096921,2096921,169411,694877,0
2096921,2096921,169461,694440,0
2096921,2096921,169876,694854,0
2096921,2096921,169741,694466,0
2096921,2096921,169669,694898,0
2096921,2096921,169290,695164,0
2096921,2096921,169555,695266,0
2096921,2096921,169389,694899,0
2096921,2096921,169558,694849,0
2096921,2096921,169391,694728,0
2096921,2096921,169487,694609,0
2096921,2096921,169469,694792,0
2096921,2096921,169534,694624,0
2096921,2096921,169773,694497,0
2096921,2096921,169227,694955,0
2096921,2096921,169568,695020,0
2096921,2096921,169802,694600,0
2096921,2096921,169703,694948,0
2096921,2096921,169694,694656,0
2096921,2096921,169374,694643,0
2096921,2096921,169526,694633,0
2096921,2096921,169456,694740,0
2096921,2096921,169339,694778,0
2096921,2096921,169545,694911,0
2096921,2096921,169452,694712,0
2096921,2096921,169758,694738,0
2096921,2096921,169645,694950,0
2096921,2096921,169559,694854,0
2096921,2096921,169516,695204,0
2096921,2096921,170080,694952,0
2096921,2096921,169526,695027,0
2096921,2096921,169317,694797,0
2096921,2096921,169400,694741,0
2096921,2096921,169418,694934,0
2096921,2096921,169267,694739,0
2096921,2096921,169282,694763,0
2096921,2096921,169422,695027,0
2096921,2096921,169785,694658,0
2096921,2096921,169701,694961,0
2096921,2096921,169572,695436,0
2096921,2096921,169384,695149,0
2096921,2096921,169508,694834,0
2096921,2096921,169563,694975,0
2096921,2096921,169672,694891,0
2096921,2096921,169693,694764,0
2096921,2096921,169618,694481,0
2096921,2096921,169728,694885,0
2096921,2096921,169504,694895,0
2096921,2096921,169596,695020,0
2096921,2096921,169605,694872,0
2096921,2096921,169740,694985,0
2096921,2096921,169268,694795,0
2096921,2096921,169647,694828,0
2096921,2096921,169788,694704,0
2096921,2096921,169365,694735,0
2096921,2096921,169461,694660,0
2096921,2096921,169457,694824,0
2096921,2096921,169394,694426,0
2096921,2096921,169509,694662,0
2096921,2096921,169416,694984,0
2096921,2096921,169275,694295,0
2096921,2096921,168787,694194,0
2096921,2096921,169188,694316,0
2096921,2096921,169048,694282,0
2096921,2096921,169285,694104,0
2096921,2096921,168911,693662,0
2096921,2096921,168850,693471,0
2096921,2096921,168758,693467,0
2096921,2096921,168884,693472,0
2096921,2096921,168845,693464,0
2096921,2096921,168659,693358,0
2096921,2096921,168517,692761,0
2096921,2096921,168598,692888,0
2096921,2096921,168763,692737,0
2096921,2096921,168758,692843,0
2096921,2096921,168119,692502,0
2096921,2096921,168164,692315,0
2096921,2096921,168315,692307,0
2096921,2096921,168243,692136,0
2096921,2096921,168017,692279,0
2096921,2096921,167645,690967,0
2096921,2096921,167507,690678,0
2096921,2096921,167218,690475,0
2096921,2096921,167507,690502,0
2096921,2096921,167448,690294,0
2096921,2096921,166573,688685,0
2096921,2096921,166185,688130,0
2096921,2096921,166385,688165,0
2096921,2096921,166387,688161,0
2096921,2096921,166448,688262,0
2096921,2096921,165602,686996,0
2096921,2096921,165872,686938,0
2096921,2096921,165881,686619,0
2096921,2096921,165671,686634,0
2096921,2096921,165847,686614,0
2096921,2096921,165287,686012,0
2096921,2096921,165296,685559,0
2096921,2096921,165213,685539,0
2096921,2096921,165141,685554,0
2096921,2096921,165214,685556,0
2096921,2096921,164915,684633,0
2096921,2096921,164882,684690,0
2096921,2096921,164741,684521,0
2096921,2096921,164920,684644,0
2096921,2096921,164601,684319,0
2096921,2096921,164711,684020,0
2096921,2096921,164348,683923,0
2096921,2096921,164484,683805,0
2096921,2096921,164171,684028,0
2096921,2096921,164465,683991,0
2096921,2096921,164061,683611,0
2096921,2096921,164289,683138,0
2096921,2096921,164121,683411,0
2096921,2096921,164285,683259,0
2096921,2096921,164223,683165,0
2096921,2096921,164437,683268,0
2096921,2096921,164159,683054,0
2096921,2096921,164207,682888,0
2096921,2096921,164254,682950,0
2096921,2096921,164453,683196,0
2096921,2096921,164099,682744,0
2096921,2096921,164127,682882,0
2096921,2096921,164026,682888,0
2096921,2096921,164110,682846,0
2096921,2096921,164000,683017,0
2096921,2096921,163995,682916,0
2096921,2096921,164217,682656,0
2096921,2096921,164337,682762,0
2096921,2096921,163950,682930,0
2096921,2096921,164162,682792,0
2096921,2096921,164031,682957,0
2096921,2096921,164110,683018,0
2096921,2096921,163987,682815,0
2096921,2096921,163910,682950,0
2096921,2096921,163900,683137,0
2096921,2096921,164064,682934,0
2096921,2096921,163970,683328,0
2096921,2096921,164239,683180,0
2096921,2096921,164503,683036,0
2096921,2096921,164200,683206,0
2096921,2096921,164159,683259,0
2096921,2096921,164321,682839,0
2096921,2096921,164188,682963,0
2096921,2096921,164169,682824,0
2096921,2096921,164093,683029,0
2096921,2096921,164323,683546,0
2096921,2096921,164296,683519,0
2096921,2096921,164335,683291,0
2096921,2096921,164450,683395,0
2096921,2096921,164401,683194,0
2096921,2096921,164177,683363,0
2096921,2096921,164304,683379,0
2096921,2096921,164569,683527,0
2096921,2096921,164489,683364,0
2096921,2096921,164713,683677,0
2096921,2096921,164629,683653,0
2096921,2096921,164710,683891,0
2096921,2096921,164914,683688,0
2096921,2096921,164622,683512,0
2096921,2096921,164519,683600,0
2096921,2096921,164620,683839,0
2096921,2096921,164565,684121,0
2096921,2096921,164700,684201,0
2096921,2096921,164654,683847,0
2096921,2096921,164547,684158,0
2096921,2096921,164791,684253,0
2096921,2096921,165225,684565,0
2096921,2096921,164814,684291,0
2096921,2096921,164738,684041,0
2096921,2096921,164872,684083,0
2096921,2096921,165004,684365,0
2096921,2096921,164897,684098,0
2096921,2096921,164994,684504,0
2096921,2096921,165199,684277,0
2096921,2096921,165248,684502,0
2096921,2096921,165238,684298,0
2096921,2096921,165364,684835,0
2096921,2096921,165397,684581,0
2096921,2096921,165201,684740,0
2096921,2096921,165272,684598,0
2096921,2096921,165461,684681,0
2096921,2096921,165258,684910,0
2096921,2096921,165113,684934,0
2096921,2096921,164867,684975,0
2096921,2096921,165341,684844,0
2096921,2096921,165188,684929,0
2096921,2096921,165311,685295,0
2096921,2096921,165398,685424,0
2096921,2096921,165477,685203,0
2096921,2096921,165258,685078,0
2096921,2096921,165513,685316,0
2096921,2096921,165605,685166,0
2096921,2096921,165457,685010,0
2096921,2096921,165337,685079,0
2096921,2096921,165708,685201,0
2096921,2096921,165410,685573,0
2096921,2096921,165895,685554,0
2096921,2096921,165680,685332,0
2096921,2096921,165713,685261,0
2096921,2096921,165431,685457,0
2096921,2096921,165937,685231,0
2096921,2096921,165787,685787,0
2096921,2096921,165771,685666,0
2096921,2096921,165719,685564,0
2096921,2096921,165806,685582,0
2096921,2096921,165898,686052,0
2096921,2096921,165947,685930,0
2096921,2096921,165741,685842,0
2096921,2096921,165782,685615,0
2096921,2096921,165768,685663,0
2096921,2096921,166037,685913,0
2096921,2096921,165992,686103,0
2096921,2096921,165909,685896,0
2096921,2096921,166235,685916,0
2096921,2096921,165957,685842,0
2096921,2096921,165992,685787,0
2096921,2096921,165738,685934,0
2096921,2096921,165958,685690,0
2096921,2096921,165871,685957,0
2096921,2096921,165911,686088,0
2096921,2096921,165902,685993,0
2096921,2096921,166050,685753,0
2096921,2096921,165754,685760,0
2096921,2096921,165969,685846,0
2096921,2096921,165939,685738,0
2096921,2096921,166062,685554,0
2096921,2096921,165902,685759,0
2096921,2096921,165816,685825,0
2096921,2096921,165874,685812,0
2096921,2096921,165935,685651,0
2096921,2096921,166173,685726,0
2096921,2096921,166060,685544,0
2096921,2096921,165927,685356,0
2096921,2096921,165749,685367,0
2096921,2096921,165955,685462,0
2096921,2096921,165783,685185,0
2096921,2096921,165845,685312,0
2096921,2096921,166047,685268,0
2096921,2096921,166149,685371,0
2096921,2096921,165777,684966,0
2096921,2096921,165442,684925,0
2096921,2096921,165688,684923,0
2096921,2096921,165691,685059,0
2096921,2096921,165920,684639,0
2096921,2096921,165893,685101,0
2096921,2096921,165893,684645,0
2096921,2096921,166039,684638,0
2096921,2096921,165833,684559,0
2096921,2096921,165510,684791,0
2096921,2096921,165623,684718,0
2096921,2096921,165764,684378,0
2096921,2096921,165642,684317,0
2096921,2096921,165691,684233,0
2096921,2096921,165470,684143,0
2096921,2096921,165633,684248,0
2096921,2096921,165338,683694,0
2096921,2096921,165515,683752,0
2096921,2096921,165589,683941,0
2096921,2096921,165220,683683,0
2096921,2096921,165243,683578,0
2096921,2096921,165320,683577,0
2096921,2096921,165348,683393,0
2096921,2096921,165320,683298,0
2096921,2096921,165417,683118,0
2096921,2096921,165242,683261,0
2096921,2096921,165508,683440,0
2096921,2096921,165227,683430,0
2096921,2096921,165364,683394,0
2096921,2096921,165200,683239,0
2096921,2096921,165038,683163,0
2096921,2096921,164998,682979,0
2096921,2096921,165186,682915,0
2096921,2096921,165111,682847,0
2096921,2096921,165170,683015,0
2096921,2096921,164943,682983,0
2096921,2096921,165101,683037,0
2096921,2096921,164978,682689,0
2096921,2096921,165135,682693,0
2096921,2096921,165056,682621,0
2096921,2096921,165185,682706,0
2096921,2096921,165216,682372,0
2096921,2096921,165193,682337,0
2096921,2096921,164921,682455,0
2096921,2096921,165021,682387,0
2096921,2096921,165167,682349,0
2096921,2096921,165003,682179,0
2096921,2096921,165102,682414,0
2096921,2096921,165242,682460,0
2096921,2096921,165111,682114,0
2096921,2096921,164880,682310,0
2096921,2096921,164961,682104,0
2096921,2096921,165301,682390,0
2096921,2096921,164855,682337,0
2096921,2096921,165092,682188,0
2096921,2096921,164962,682496,0
2096921,2096921,165176,682615,0
2096921,2096921,165231,682118,0
2096921,2096921,165445,682411,0
2096921,2096921,165108,682366,0
2096921,2096921,164992,682100,0
2096921,2096921,165036,682056,0
2096921,2096921,165123,681961,0
2096921,2096921,165115,681942,0
2096921,2096921,164948,682006,0
2096921,2096921,165308,682161,0
2096921,2096921,165065,682124,0
2096921,2096921,165526,682370,0
2096921,2096921,165337,682081,0
2096921,2096921,165161,682111,0
2096921,2096921,165529,681790,0
2096921,2096921,165229,682185,0
2096921,2096921,165131,682103,0
2096921,2096921,165122,682002,0
2096921,2096921,165013,681967,0
2096921,2096921,165240,682199,0
2096921,2096921,165361,681913,0
2096921,2096921,165487,682101,0
2096921,2096921,165398,682101,0
2096921,2096921,165280,682096,0
2096921,2096921,165023,681973,0
2096921,2096921,165174,681722,0
2096921,2096921,165046,681749,0
2096921,2096921,165330,681693,0
2096921,2096921,165033,681866,0
2096921,2096921,165312,681745,0
2096921,2096921,165185,681567,0
2096921,2096921,165580,681674,0
2096921,2096921,165593,681617,0
2096921,2096921,165673,681539,0
2096921,2096921,165464,681659,0
2096921,2096921,165383,681496,0
2096921,2096921,164977,681583,0
2096921,2096921,165347,681732,0
2096921,2096921,165369,681906,0
2096921,2096921,165534,681456,0
2096921,2096921,165131,681576,0
2096921,2096921,165134,681464,0
2096921,2096921,165372,681518,0
2096921,2096921,165767,681195,0
2096921,2096921,165506,681604,0
2096921,2096921,165264,681118,0
2096921,2096921,165171,681070,0
2096921,2096921,165090,681098,0
2096921,2096921,165356,681386,0
2096921,2096921,165105,681242,0
2096921,2096921,165466,681175,0
2096921,2096921,165316,681290,0
2096921,2096921,165142,681495,0
2096921,2096921,165135,681221,0
2096921,2096921,165182,681717,0
2096921,2096921,165277,680973,0
2096921,2096921,165302,681046,0
2096921,2096921,165377,680942,0
2096921,2096921,165183,680973,0
2096921,2096921,165303,680907,0
2096921,2096921,165375,680926,0
2096921,2096921,165098,680982,0
2096921,2096921,165281,681156,0
2096921,2096921,165230,680617,0
2096921,2096921,165466,680729,0
2096921,2096921,165097,680488,0
2096921,2096921,165260,680560,0
2096921,2096921,165405,680671,0
2096921,2096921,165568,680523,0
2096921,2096921,165243,680694,0
2096921,2096921,165600,680713,0
2096921,2096921,165480,680282,0
2096921,2096921,165236,680313,0
2096921,2096921,165381,680517,0
2096921,2096921,165291,680651,0
2096921,2096921,165399,680567,0
2096921,2096921,165242,680689,0
2096921,2096921,165394,680644,0
2096921,2096921,165117,680490,0
2096921,2096921,165321,680408,0
2096921,2096921,165260,679995,0
2096921,2096921,165339,680333,0
2096921,2096921,165318,680295,0
2096921,2096921,165524,680106,0
2096921,2096921,165328,680351,0
2096921,2096921,165333,680025,0
2096921,2096921,165359,679705,0
2096921,2096921,165131,679971,0
2096921,2096921,165309,680165,0
2096921,2096921,165356,680243,0
2096921,2096921,165576,679944,0
2096921,2096921,165654,679527,0
2096921,2096921,165246,679812,0
2096921,2096921,165392,679797,0
2096921,2096921,165230,680228,0
2096921,2096921,165259,679738,0
2096921,2096921,165259,679954,0
2096921,2096921,165301,679778,0
2096921,2096921,165242,679501,0
2096921,2096921,165240,679462,0
2096921,2096921,165288,679584,0
2096921,2096921,165345,679416,0
2096921,2096921,165279,679424,0
2096921,2096921,165352,679542,0
2096921,2096921,165115,679498,0
2096921,2096921,165430,679026,0
2096921,2096921,165214,678834,0
2096921,2096921,165188,679232,0
2096921,2096921,165379,679080,0
2096921,2096921,165172,679109,0
2096921,2096921,165441,679287,0
2096921,2096921,165147,678774,0
2096921,2096921,165079,679082,0
2096921,2096921,164930,678916,0
2096921,2096921,164889,679013,0
2096921,2096921,165096,678742,0
2096921,2096921,164935,679003,0
2096921,2096921,165357,678495,0
2096921,2096921,165306,678729,0
2096921,2096921,165349,678955,0
2096921,2096921,165030,678705,0
2096921,2096921,164846,678499,0
2096921,2096921,165282,678348,0
2096921,2096921,165234,678228,0
2096921,2096921,165284,678425,0
2096921,2096921,165069,678314,0
2096921,2096921,164952,678218,0
2096921,2096921,165110,678175,0
2096921,2096921,165065,678084,0
2096921,2096921,164899,678330,0
2096921,2096921,164803,677884,0
2096921,2096921,164730,677808,0
2096921,2096921,164992,678300,0
2096921,2096921,164892,678057,0
2096921,2096921,165124,678057,0
2096921,2096921,165054,678076,0
2096921,2096921,164987,677700,0
2096921,2096921,164879,677614,0
2096921,2096921,164911,677578,0
2096921,2096921,164861,677693,0
2096921,2096921,164698,677384,0
2096921,2096921,164957,677473,0
2096921,2096921,165047,677611,0
2096921,2096921,164823,677451,0
2096921,2096921,165093,677338,0
2096921,2096921,164719,677502,0
2096921,2096921,164543,677076,0
2096921,2096921,164641,677321,0
2096921,2096921,164801,677144,0
2096921,2096921,164724,676816,0
2096921,2096921,164752,676797,0
2096921,2096921,164795,677062,0
2096921,2096921,164628,677231,0
2096921,2096921,164820,677058,0
2096921,2096921,164739,676921,0
2096921,2096921,164550,676517,0
2096921,2096921,164557,676559,0
2096921,2096921,164852,676577,0
2096921,2096921,164796,676462,0
2096921,2096921,164642,676802,0
2096921,2096921,164506,676560,0
2096921,2096921,164685,676302,0
2096921,2096921,164757,676419,0
2096921,2096921,164712,676372,0
2096921,2096921,164641,676489,0
2096921,2096921,164459,676270,0
2096921,2096921,164685,676110,0
2096921,2096921,164851,676156,0
2096921,2096921,164700,676312,0
2096921,2096921,164953,676092,0
2096921,2096921,164675,675686,0
2096921,2096921,164709,675763,0
2096921,2096921,164641,675920,0
2096921,2096921,164794,675976,0
2096921,2096921,164713,675635,0
2096921,2096921,164638,675499,0
2096921,2096921,164864,675672,0
2096921,2096921,164624,675322,0
2096921,2096921,164479,675950,0
2096921,2096921,164441,675581,0
2096921,2096921,164713,675542,0
2096921,2096921,164821,675235,0
2096921,2096921,164674,675481,0
2096921,2096921,164496,675562,0
2096921,2096921,164547,675407,0
2096921,2096921,164347,675063,0
2096921,2096921,164404,675169,0
2096921,2096921,164407,675045,0
2096921,2096921,164147,675206,0
2096921,2096921,164236,674865,0
2096921,2096921,164291,674522,0
2096921,2096921,164633,674822,0
2096921,2096921,164470,675014,0
2096921,2096921,164485,675082,0
2096921,2096921,164526,675182,0
2096921,2096921,164454,674962,0
2096921,2096921,164138,674589,0
2096921,2096921,164171,674523,0
2096921,2096921,164258,674396,0
2096921,2096921,163872,674754,0
2096921,2096921,164265,674539,0
2096921,2096921,164338,674522,0
2096921,2096921,164312,674763,0
2096921,2096921,164186,674420,0
2096921,2096921,164096,674320,0
2096921,2096921,164369,674068,0
2096921,2096921,164397,674099,0
2096921,2096921,164336,674110,0
2096921,2096921,164063,674205,0
2096921,2096921,164316,673948,0
2096921,2096921,164193,673836,0
2096921,2096921,164658,673857,0
2096921,2096921,163976,673949,0
2096921,2096921,164027,673821,0
2096921,2096921,164087,674102,0
2096921,2096921,164199,673743,0
2096921,2096921,164177,673567,0
2096921,2096921,163982,673669,0
2096921,2096921,163943,673355,0
2096921,2096921,163909,673613,0
2096921,2096921,164024,673260,0
2096921,2096921,164062,673570,0
2096921,2096921,164060,673548,0
2096921,2096921,164145,673374,0
2096921,2096921,164228,673113,0
2096921,2096921,163978,673006,0
2096921,2096921,163997,673133,0
2096921,2096921,163926,672782,0
2096921,2096921,164245,673054,0
2096921,2096921,163854,672950,0
2096921,2096921,163989,672929,0
2096921,2096921,163823,672502,0
2096921,2096921,163826,672610,0
2096921,2096921,163653,672651,0
2096921,2096921,163693,672921,0
2096921,2096921,163891,672704,0
2096921,2096921,163961,672638,0
2096921,2096921,163728,672301,0
2096921,2096921,163743,672079,0
2096921,2096921,163739,672285,0
2096921,2096921,163755,672070,0
2096921,2096921,163890,671987,0
2096921,2096921,164083,672490,0
2096921,2096921,163387,672118,0
2096921,2096921,163999,672178,0
2096921,2096921,163603,671881,0
2096921,2096921,163529,671371,0
2096921,2096921,163614,671470,0
2096921,2096921,163895,671597,0
2096921,2096921,163681,671788,0
2096921,2096921,163482,671666,0
2096921,2096921,163567,671535,0
2096921,2096921,163790,671562,0
2096921,2096921,163599,671654,0
2096921,2096921,163732,671642,0
2096921,2096921,163356,671545,0
2096921,2096921,163334,671238,0
2096921,2096921,163380,671303,0
2096921,2096921,163514,671256,0
2096921,2096921,163432,671314,0
2096921,2096921,163250,670912,0
2096921,2096921,163227,670773,0
2096921,2096921,163429,670535,0
2096921,2096921,163300,670692,0
2096921,2096921,162956,670624,0
2096921,2096921,162934,670449,0
2096921,2096921,163280,670164,0
2096921,2096921,163118,670093,0
2096921,2096921,163044,669961,0
2096921,2096921,162900,670080,0
2096921,2096921,162926,669378,0
2096921,2096921,162633,669408,0
2096921,2096921,163032,669444,0
2096921,2096921,163076,669381,0
2096921,2096921,162801,669448,0
2096921,2096921,162442,668852,0
2096921,2096921,162311,668573,0
2096921,2096921,162270,668680,0
2096921,2096921,162080,668295,0
2096921,2096921,162350,668771,0
2096921,2096921,161792,667504,0
2096921,2096921,162094,667383,0
2096921,2096921,161965,667541,0
2096921,2096921,161961,667762,0
2096921,2096921,162012,667303,0
2096921,2096921,161549,666013,0
2096921,2096921,161012,665336,0
2096921,2096921,161010,665655,0
2096921,2096921,161317,665735,0
2096921,2096921,161067,665603,0
2096921,2096921,160461,663801,0
2096921,2096921,160022,663675,0
2096921,2096921,160095,663363,0
2096921,2096921,160149,663659,0
2096921,2096921,159923,663478,0
2096921,2096921,159274,661896,0
2096921,2096921,159460,661722,0
2096921,2096921,159487,661803,0
2096921,2096921,159735,661566,0
2096921,2096921,159428,661844,0
2096921,2096921,159118,660593,0
2096921,2096921,159227,660159,0
2096921,2096921,158864,660383,0
2096921,2096921,158838,660578,0
2096921,2096921,158779,660169,0
2096921,2096921,158501,659432,0
2096921,2096921,158606,659190,0
2096921,2096921,158708,659440,0
2096921,2096921,158442,659214,0
2096921,2096921,158170,659450,0
2096921,2096921,157860,658654,0
2096921,2096921,158200,658693,0
2096921,2096921,158036,658377,0
2096921,2096921,158129,658626,0
2096921,2096921,158316,658343,0
2096921,2096921,158015,658164,0
2096921,2096921,157761,657814,0
2096921,2096921,157513,657845,0
2096921,2096921,157932,657426,0
2096921,2096921,157720,658010,0
2096921,2096921,157907,657771,0
2096921,2096921,157544,657671,0
2096921,2096921,157983,657474,0
2096921,2096921,157684,657449,0
2096921,2096921,157597,657420,0
2096921,2096921,157749,657628,0
2096921,2096921,157461,657258,0
2096921,2096921,157848,657148,0
2096921,2096921,157541,657319,0
2096921,2096921,157538,657216,0
2096921,2096921,157746,656890,0
2096921,2096921,157798,657228,0
2096921,2096921,157592,657226,0
2096921,2096921,157592,657316,0
2096921,2096921,157721,657396,0
2096921,2096921,157601,657273,0
2096921,2096921,157809,656828,0
2096921,2096921,157714,657269,0
2096921,2096921,157806,657267,0
2096921,2096921,157706,657086,0
2096921,2096921,157711,657121,0
2096921,2096921,157341,657377,0
2096921,2096921,157585,657271,0
2096921,2096921,157505,657242,0
2096921,2096921,157858,657505,0
2096921,2096921,157632,657595,0
2096921,2096921,157644,657390,0
2096921,2096921,157544,657235,0
2096921,2096921,157612,657068,0
2096921,2096921,157736,657520,0
2096921,2096921,157934,657364,0
2096921,2096921,157796,657486,0
2096921,2096921,157781,657611,0
2096921,2096921,157906,657754,0
2096921,2096921,158022,657420,0
2096921,2096921,157814,657795,0
2096921,2096921,157852,657377,0
2096921,2096921,158017,657642,0
2096921,2096921,157927,657395,0
2096921,2096921,157984,657731,0
2096921,2096921,158120,657636,0
2096921,2096921,158241,657582,0
2096921,2096921,157972,657567,0
2096921,2096921,157768,657890,0
2096921,2096921,158062,657904,0
2096921,2096921,158454,657799,0
2096921,2096921,158070,658307,0
2096921,2096921,158208,658153,0
2096921,2096921,158296,658153,0
2096921,2096921,158084,658126,0
2096921,2096921,158325,658086,0
2096921,2096921,158362,658262,0
2096921,2096921,158361,658314,0
2096921,2096921,158552,658576,0
2096921,2096921,158521,658258,0
2096921,2096921,158529,658461,0
2096921,2096921,158363,658664,0
2096921,2096921,158607,658778,0
2096921,2096921,158622,658494,0
2096921,2096921,158578,658433,0
2096921,2096921,158460,658581,0
2096921,2096921,158584,659180,0
2096921,2096921,158601,659029,0
2096921,2096921,158746,659289,0
2096921,2096921,158610,659080,0
2096921,2096921,159014,659353,0
2096921,2096921,158941,659470,0
2096921,2096921,158944,659292,0
2096921,2096921,158563,659329,0
2096921,2096921,158729,659104,0
2096921,2096921,158860,659210,0
2096921,2096921,158951,659623,0
2096921,2096921,159094,659876,0
2096921,2096921,158718,659536,0
2096921,2096921,158722,659341,0
2096921,2096921,158718,659856,0
2096921,2096921,158817,659846,0
2096921,2096921,158868,659816,0
2096921,2096921,159142,659678,0
2096921,2096921,158978,659667,0
2096921,2096921,159229,659906,0
2096921,2096921,159359,660019,0
2096921,2096921,159327,659989,0
2096921,2096921,159518,660018,0
2096921,2096921,159251,660379,0
2096921,2096921,159441,660656,0
2096921,2096921,159480,660380,0
2096921,2096921,159183,660398,0
2096921,2096921,159309,660417,0
2096921,2096921,159269,660650,0
2096921,2096921,159199,660682,0
2096921,2096921,159603,660682,0
2096921,2096921,159429,661100,0
2096921,2096921,159777,660588,0
2096921,2096921,159489,660878,0
2096921,2096921,159505,660940,0
2096921,2096921,159344,660769,0
2096921,2096921,159432,660988,0
2096921,2096921,159284,661101,0
2096921,2096921,159416,661061,0
2096921,2096921,159471,660902,0
2096921,2096921,159803,661386,0
2096921,2096921,159667,661520,0
2096921,2096921,159717,661165,0
2096921,2096921,159666,661154,0
2096921,2096921,159770,661487,0
2096921,2096921,159607,661501,0
2096921,2096921,159800,661245,0
2096921,2096921,159720,661349,0
2096921,2096921,159317,661173,0
2096921,2096921,159981,661467,0
2096921,2096921,159786,661398,0
2096921,2096921,159910,661859,0
2096921,2096921,159809,661606,0
2096921,2096921,159865,661609,0
2096921,2096921,159742,661587,0
2096921,2096921,159816,661605,0
2096921,2096921,159851,661420,0
2096921,2096921,159870,661312,0
2096921,2096921,159739,661280,0
2096921,2096921,159939,661163,0
2096921,2096921,159642,661638,0
2096921,2096921,159907,661695,0
2096921,2096921,159563,661715,0
2096921,2096921,159815,661700,0
2096921,2096921,159760,661630,0
2096921,2096921,160169,661439,0
2096921,2096921,159580,661340,0
2096921,2096921,159862,661115,0
2096921,2096921,159685,661499,0
2096921,2096921,159804,661088,0
2096921,2096921,159808,661281,0
2096921,2096921,159757,661364,0
2096921,2096921,159910,661224,0
2096921,2096921,159892,661312,0
2096921,2096921,159777,661258,0
2096921,2096921,159830,660954,0
2096921,2096921,159751,661094,0
2096921,2096921,159659,661294,0
2096921,2096921,159921,661060,0
2096921,2096921,159809,661137,0
2096921,2096921,159892,661328,0
2096921,2096921,159638,661015,0
2096921,2096921,159901,661309,0
2096921,2096921,159865,661089,0
2096921,2096921,159873,661135,0
2096921,2096921,159659,660841,0
2096921,2096921,159662,660913,0
2096921,2096921,159740,660882,0
2096921,2096921,159445,660815,0
2096921,2096921,159390,660714,0
2096921,2096921,159542,660690,0
2096921,2096921,159605,660869,0
2096921,2096921,159615,660849,0
2096921,2096921,159611,661061,0
2096921,2096921,159600,660707,0
2096921,2096921,159553,660642,0
2096921,2096921,159565,660783,0
2096921,2096921,159681,660850,0
2096921,2096921,159547,660579,0
2096921,2096921,159759,660858,0
2096921,2096921,159485,660865,0
2096921,2096921,159288,660910,0
2096921,2096921,159441,660781,0
2096921,2096921,159517,661313,0
2096921,2096921,159763,660820,0
2096921,2096921,159398,660672,0
2096921,2096921,159620,660793,0
2096921,2096921,159633,660869,0
2096921,2096921,159613,661230,0
2096921,2096921,159736,661217,0
2096921,2096921,159774,661218,0
2096921,2096921,159654,661431,0
2096921,2096921,159927,661421,0
2096921,2096921,159681,661308,0
2096921,2096921,159822,661571,0
2096921,2096921,159814,661604,0
2096921,2096921,159564,661315,0
2096921,2096921,160032,661201,0
2096921,2096921,159881,661507,0
2096921,2096921,160066,661729,0
2096921,2096921,160017,661792,0
2096921,2096921,160277,661664,0
2096921,2096921,160282,661476,0
2096921,2096921,160092,661756,0
2096921,2096921,159905,661457,0
2096921,2096921,160356,661777,0
2096921,2096921,159911,661742,0
2096921,2096921,160025,662054,0
2096921,2096921,159792,661903,0
2096921,2096921,160072,661825,0
2096921,2096921,160336,662130,0
2096921,2096921,160298,662358,0
2096921,2096921,160257,662378,0
2096921,2096921,160375,662324,0
2096921,2096921,160380,662333,0
2096921,2096921,160219,662390,0
2096921,2096921,160279,662406,0
2096921,2096921,160475,662459,0
2096921,2096921,160218,662452,0
2096921,2096921,160447,662555,0
2096921,2096921,160289,662614,0
2096921,2096921,160612,662719,0
2096921,2096921,160458,662618,0
2096921,2096921,160705,662688,0
2096921,2096921,160427,662707,0
2096921,2096921,160698,662772,0
2096921,2096921,160771,662584,0
2096921,2096921,160661,662574,0
2096921,2096921,160293,662789,0
2096921,2096921,160742,662919,0
2096921,2096921,160854,662888,0
2096921,2096921,160870,662951,0
2096921,2096921,160543,663141,0
2096921,2096921,160658,663075,0
2096921,2096921,160689,663421,0
2096921,2096921,160677,663195,0
2096921,2096921,160875,663073,0
2096921,2096921,160657,663060,0
2096921,2096921,160643,663241,0
2096921,2096921,160876,663449,0
2096921,2096921,160951,663741,0
2096921,2096921,160875,663552,0
2096921,2096921,160652,663447,0
2096921,2096921,160738,663439,0
2096921,2096921,160892,663480,0
2096921,2096921,160618,663478,0
2096921,2096921,160781,663645,0
2096921,2096921,160680,663304,0
2096921,2096921,160788,663731,0
2096921,2096921,160861,663720,0
2096921,2096921,161149,663613,0
2096921,2096921,160851,663698,0
2096921,2096921,161070,663691,0
2096921,2096921,160741,663592,0
2096921,2096921,161236,663988,0
2096921,2096921,161039,663987,0
2096921,2096921,160866,663742,0
2096921,2096921,160840,663793,0
2096921,2096921,161212,663635,0
2096921,2096921,161011,664113,0
2096921,2096921,160755,664151,0
2096921,2096921,161129,664065,0
2096921,2096921,161310,664268,0
2096921,2096921,161192,664355,0
2096921,2096921,161096,664450,0
2096921,2096921,160964,664653,0
2096921,2096921,161262,664564,0
2096921,2096921,161101,664536,0
2096921,2096921,161024,664108,0
2096921,2096921,161262,664465,0
2096921,2096921,161232,664357,0
2096921,2096921,161316,664690,0
2096921,2096921,161571,664501,0
2096921,2096921,161507,664933,0
2096921,2096921,161177,664786,0
2096921,2096921,161346,665025,0
2096921,2096921,161365,664799,0
2096921,2096921,161353,664849,0
2096921,2096921,161475,664802,0
2096921,2096921,161322,665024,0
2096921,2096921,161724,664827,0
2096921,2096921,161679,665111,0
2096921,2096921,161574,664970,0
2096921,2096921,161362,665125,0
2096921,2096921,161500,665296,0
2096921,2096921,161809,665369,0
2096921,2096921,161671,665014,0
2096921,2096921,161722,665099,0
2096921,2096921,161559,665277,0
2096921,2096921,161665,665321,0
2096921,2096921,161639,665150,0
2096921,2096921,161725,665517,0
2096921,2096921,161841,665722,0
2096921,2096921,161665,665614,0
2096921,2096921,161873,665833,0
2096921,2096921,161668,665837,0
2096921,2096921,161433,665586,0
2096921,2096921,161657,665718,0
2096921,2096921,161745,665622,0
2096921,2096921,161777,666177,0
2096921,2096921,161715,666351,0
2096921,2096921,161897,666214,0
2096921,2096921,161799,665974,0
2096921,2096921,161911,666247,0
2096921,2096921,161897,666264,0
2096921,2096921,162043,665988,0
2096921,2096921,161944,666156,0
2096921,2096921,161909,666338,0
2096921,2096921,161636,666313,0
2096921,2096921,161710,666327,0
2096921,2096921,162000,666386,0
2096921,2096921,162168,666557,0
2096921,2096921,161898,666271,0
2096921,2096921,162002,666487,0
2096921,2096921,161902,666491,0
2096921,2096921,162083,666676,0
2096921,2096921,161899,666380,0
2096921,2096921,161906,666480,0
2096921,2096921,161865,666538,0
2096921,2096921,162017,666768,0
2096921,2096921,162261,667024,0
2096921,2096921,162173,666826,0
2096921,2096921,162323,667230,0
2096921,2096921,162187,666932,0
2096921,2096921,161986,667086,0
2096921,2096921,162257,667129,0
2096921,2096921,161890,666928,0
2096921,2096921,162307,666928,0
2096921,2096921,161987,667041,0
2096921,2096921,162531,666940,0
2096921,2096921,162330,667123,0
2096921,2096921,162055,667337,0
2096921,2096921,162140,667308,0
2096921,2096921,162498,667687,0
2096921,2096921,162378,667801,0
2096921,2096921,162305,667595,0
2096921,2096921,162463,667657,0
2096921,2096921,162450,667515,0
2096921,2096921,162562,667649,0
2096921,2096921,162681,667434,0
2096921,2096921,162576,667643,0
2096921,2096921,162539,667773,0
2096921,2096921,162509,668151,0
2096921,2096921,162137,668062,0
2096921,2096921,162389,668173,0
2096921,2096921,162513,668282,0
2096921,2096921,162302,667972,0
2096921,2096921,162324,668133,0
2096921,2096921,162746,668110,0
2096921,2096921,162575,668168,0
2096921,2096921,162457,668305,0
2096921,2096921,162602,668359,0
2096921,2096921,162773,668432,0
2096921,2096921,162731,668184,0
2096921,2096921,162783,668454,0
2096921,2096921,162612,668307,0
2096921,2096921,162586,668359,0
2096921,2096921,162799,668597,0
2096921,2096921,162904,668306,0
2096921,2096921,163023,668914,0
2096921,2096921,162711,668838,0
2096921,2096921,162891,668795,0
2096921,2096921,162986,668940,0
2096921,2096921,162796,669017,0
2096921,2096921,162790,669142,0
2096921,2096921,162747,668932,0
2096921,2096921,162842,668802,0
2096921,2096921,162449,668726,0
2096921,2096921,162738,668700,0
2096921,2096921,162863,668897,0
2096921,2096921,163003,669262,0
2096921,2096921,162981,669246,0
2096921,2096921,162984,669154,0
2096921,2096921,162987,669123,0
2096921,2096921,163008,669526,0
2096921,2096921,162878,669439,0
2096921,2096921,162874,669506,0
2096921,2096921,163206,669314,0
2096921,2096921,162738,669645,0
2096921,2096921,162994,669500,0
2096921,2096921,163079,669611,0
2096921,2096921,163486,669657,0
2096921,2096921,162936,669727,0
2096921,2096921,162884,670079,0
2096921,2096921,163343,670285,0
2096921,2096921,163168,670328,0
2096921,2096921,163094,670088,0
2096921,2096921,162862,670167,0
2096921,2096921,162796,670025,0
2096921,2096921,163276,670412,0
2096921,2096921,163329,670439,0
2096921,2096921,163208,670583,0
2096921,2096921,163155,670927,0
2096921,2096921,163071,670415,0
2096921,2096921,163264,670723,0
2096921,2096921,163095,670332,0
2096921,2096921,163348,670677,0
2096921,2096921,163361,670437,0
2096921,2096921,163446,670799,0
2096921,2096921,163461,670495,0
2096921,2096921,163631,670903,0
2096921,2096921,163595,671326,0
2096921,2096921,163227,670971,0
2096921,2096921,163225,671164,0
2096921,2096921,163361,671222,0
2096921,2096921,163502,671063,0
2096921,2096921,163821,671057,0
2096921,2096921,163582,671051,0
2096921,2096921,163391,671384,0
2096921,2096921,163310,671712,0
2096921,2096921,163502,671379,0
2096921,2096921,163398,671502,0
2096921,2096921,163436,671409,0
2096921,2096921,163739,671904,0
2096921,2096921,163815,671746,0
2096921,2096921,163705,671752,0
2096921,2096921,163877,671831,0
2096921,2096921,163656,671771,0
2096921,2096921,163731,671600,0
2096921,2096921,163694,671926,0
2096921,2096921,163591,672149,0
2096921,2096921,163390,671995,0
2096921,2096921,163669,671876,0
2096921,2096921,163810,671978,0
2096921,2096921,163634,672439,0
2096921,2096921,163739,672205,0
2096921,2096921,163524,672382,0
2096921,2096921,163946,672410,0
2096921,2096921,163458,672083,0
2096921,2096921,163580,672546,0
2096921,2096921,163770,672686,0
2096921,2096921,164025,672658,0
2096921,2096921,163950,672738,0
2096921,2096921,164167,672616,0
2096921,2096921,163941,672464,0
2096921,2096921,163997,672789,0
2096921,2096921,163796,672801,0
2096921,2096921,163976,672710,0
2096921,2096921,164203,672915,0
2096921,2096921,163933,673160,0
2096921,2096921,164055,673117,0
2096921,2096921,164011,673179,0
2096921,2096921,163707,673371,0
2096921,2096921,164005,673207,0
2096921,2096921,163984,673515,0
2096921,2096921,163849,673407,0
2096921,2096921,164075,673659,0
2096921,2096921,164186,673431,0
2096921,2096921,164196,673359,0
2096921,2096921,164245,673726,0
2096921,2096921,164148,673602,0
2096921,2096921,164052,673994,0
2096921,2096921,164226,673969,0
2096921,2096921,164161,673693,0
2096921,2096921,164416,674123,0
2096921,2096921,164271,673867,0
2096921,2096921,164380,673857,0
2096921,2096921,164119,673685,0
2096921,2096921,164332,674182,0
2096921,2096921,164161,673825,0
2096921,2096921,164277,673853,0
2096921,2096921,164134,674130,0
2096921,2096921,164539,674493,0
2096921,2096921,164139,674354,0
2096921,2096921,164237,674267,0
2096921,2096921,164038,674229,0
2096921,2096921,164348,674153,0
2096921,2096921,163990,674100,0
2096921,2096921,164395,674132,0
2096921,2096921,163777,673673,0
2096921,2096921,163916,673691,0
2096921,2096921,163942,673722,0
2096921,2096921,164035,673796,0
2096921,2096921,163672,673863,0
2096921,2096921,163791,673631,0
2096921,2096921,163443,673420,0
2096921,2096921,163738,673514,0
2096921,2096921,163408,673262,0
2096921,2096921,163805,673385,0
2096921,2096921,163684,672801,0
2096921,2096921,163558,672802,0
2096921,2096921,163476,673262,0
2096921,2096921,163975,672993,0
2096921,2096921,163347,673452,0
2096921,2096921,163148,671979,0
2096921,2096921,162695,671659,0
2096921,2096921,162757,671482,0
2096921,2096921,162616,671651,0
2096921,2096921,162881,671521,0
2096921,2096921,162210,670083,0
2096921,2096921,162008,670132,0
2096921,2096921,161884,670085,0
2096921,2096921,162086,669931,0
2096921,2096921,161829,670042,0
2096921,2096921,161486,668984,0
2096921,2096921,161535,668731,0
2096921,2096921,161214,668732,0
2096921,2096921,161098,668512,0
2096921,2096921,161249,668686,0
2096921,2096921,160689,668229,0
2096921,2096921,160907,667751,0
2096921,2096921,161062,668174,0
2096921,2096921,160806,668015,0
2096921,2096921,161002,668046,0
2096921,2096921,160923,667752,0
2096921,2096921,160518,667725,0
2096921,2096921,160721,667281,0
2096921,2096921,160119,667454,0
2096921,2096921,160458,667419,0
2096921,2096921,160098,667258,0
2096921,2096921,160224,667129,0
2096921,2096921,160376,667124,0
2096921,2096921,160148,667062,0
2096921,2096921,160116,667093,0
2096921,2096921,160351,666763,0
2096921,2096921,160412,667070,0
2096921,2096921,160242,667029,0
2096921,2096921,160474,667235,0
2096921,2096921,160257,667184,0
2096921,2096921,160187,667189,0
2096921,2096921,160034,666994,0
2096921,2096921,160462,667002,0
2096921,2096921,160288,667139,0
2096921,2096921,160238,667289,0
2096921,2096921,160313,667209,0
2096921,2096921,159845,667257,0
2096921,2096921,160218,667237,0
2096921,2096921,159957,667266,0
2096921,2096921,159865,667335,0
2096921,2096921,160240,667784,0
2096921,2096921,160458,667854,0
2096921,2096921,160530,667903,0
2096921,2096921,160404,667942,0
2096921,2096921,160203,667840,0
2096921,2096921,160288,668146,0
2096921,2096921,160395,668019,0
2096921,2096921,160576,667824,0
2096921,2096921,160087,667914,0
2096921,2096921,160445,668079,0
2096921,2096921,160656,668574,0
2096921,2096921,160821,668653,0
2096921,2096921,160327,668708,0
2096921,2096921,160236,668705,0
2096921,2096921,160291,668992,0
2096921,2096921,160530,668952,0
2096921,2096921,160926,669225,0
2096921,2096921,160681,668996,0
2096921,2096921,160774,669274,0
2096921,2096921,160876,668919,0
2096921,2096921,160993,669737,0
2096921,2096921,160874,669549,0
2096921,2096921,160962,669732,0
2096921,2096921,160811,669794,0
2096921,2096921,160871,669844,0
2096921,2096921,160935,670414,0
2096921,2096921,161244,670489,0
2096921,2096921,161089,670136,0
2096921,2096921,161314,670089,0
2096921,2096921,161003,670266,0
2096921,2096921,161651,670810,0
2096921,2096921,161335,670948,0
2096921,2096921,161480,670929,0
2096921,2096921,161182,671138,0
2096921,2096921,161336,671196,0
2096921,2096921,161624,671529,0
2096921,2096921,161865,671439,0
2096921,2096921,161466,671680,0
2096921,2096921,161610,671625,0
2096921,2096921,161358,671805,0
2096921,2096921,162016,672299,0
2096921,2096921,161899,672229,0
2096921,2096921,162035,672731,0
2096921,2096921,162117,672981,0
2096921,2096921,161824,672494,0
2096921,2096921,162353,672902,0
2096921,2096921,162090,673121,0
2096921,2096921,162333,673366,0
2096921,2096921,162241,673317,0
2096921,2096921,162128,673142,0
2096921,2096921,162247,673525,0
2096921,2096921,162104,673837,0
2096921,2096921,162283,673547,0
2096921,2096921,162377,674058,0
2096921,2096921,162269,673747,0
2096921,2096921,162702,674410,0
2096921,2096921,162524,674526,0
2096921,2096921,162686,674515,0
2096921,2096921,162582,674401,0
2096921,2096921,162653,674500,0
2096921,2096921,162749,675123,0
2096921,2096921,162957,675266,0
2096921,2096921,163036,675347,0
2096921,2096921,163060,675333,0
2096921,2096921,162902,675495,0
2096921,2096921,163326,675790,0
2096921,2096921,163072,676044,0
2096921,2096921,163163,676201,0
2096921,2096921,162918,675931,0
2096921,2096921,163251,676026,0
2096921,2096921,163286,676652,0
2096921,2096921,163779,676883,0
2096921,2096921,163402,676709,0
2096921,2096921,163478,676758,0
2096921,2096921,163415,676437,0
2096921,2096921,163732,677156,0
2096921,2096921,163717,677388,0
2096921,2096921,163544,677186,0
2096921,2096921,163882,677372,0
2096921,2096921,163959,677366,0
2096921,2096921,164056,677980,0
2096921,2096921,164007,678077,0
2096921,2096921,164513,678087,0
2096921,2096921,163908,678031,0
2096921,2096921,163779,678022,0
2096921,2096921,163854,678579,0
2096921,2096921,164026,678550,0
2096921,2096921,163883,678555,0
2096921,2096921,163948,678215,0
2096921,2096921,164021,678444,0
2096921,2096921,164538,678910,0
2096921,2096921,164398,679080,0
2096921,2096921,164411,678897,0
2096921,2096921,164488,679365,0
2096921,2096921,164204,678998,0
2096921,2096921,164613,679596,0
2096921,2096921,164428,679527,0
2096921,2096921,164109,679421,0
2096921,2096921,164304,679328,0
2096921,2096921,164468,679303,0
2096921,2096921,164699,680056,0
2096921,2096921,164674,680241,0
2096921,2096921,164772,680005,0
2096921,2096921,164592,679952,0
2096921,2096921,164559,680020,0
2096921,2096921,164840,680126,0
2096921,2096921,164507,680206,0
2096921,2096921,164633,680348,0
2096921,2096921,164357,680203,0
2096921,2096921,164786,680239,0
2096921,2096921,164962,680492,0
2096921,2096921,165085,680840,0
2096921,2096921,164706,680696,0
2096921,2096921,164783,680825,0
2096921,2096921,164725,680695,0
2096921,2096921,164919,680842,0
2096921,2096921,164559,680927,0
2096921,2096921,164849,680771,0
2096921,2096921,164463,680868,0
2096921,2096921,164721,680486,0
2096921,2096921,164975,680886,0
2096921,2096921,164927,680973,0
2096921,2096921,164680,681109,0
2096921,2096921,164826,681218,0
2096921,2096921,164779,681123,0
2096921,2096921,164962,681395,0
2096921,2096921,164760,681375,0
2096921,2096921,164696,681158,0
2096921,2096921,165007,681159,0
2096921,2096921,164538,680995,0
2096921,2096921,164930,681362,0
2096921,2096921,164565,681437,0
2096921,2096921,164914,681785,0
2096921,2096921,164896,681651,0
2096921,2096921,164899,681757,0
2096921,2096921,164680,681525,0
2096921,2096921,165052,681838,0
2096921,2096921,164974,681770,0
2096921,2096921,164827,681685,0
2096921,2096921,164468,681468,0
2096921,2096921,165098,681532,0
2096921,2096921,165012,681835,0
2096921,2096921,164769,681831,0
2096921,2096921,165040,682200,0
2096921,2096921,164776,682005,0
2096921,2096921,165021,682212,0
2096921,2096921,164809,682028,0
2096921,2096921,164979,682257,0
2096921,2096921,164892,681895,0
2096921,2096921,165069,682355,0
2096921,2096921,164898,682576,0
2096921,2096921,165068,682630,0
2096921,2096921,165070,682573,0
2096921,2096921,165287,682612,0
2096921,2096921,164920,682490,0
2096921,2096921,165220,682838,0
2096921,2096921,165159,682621,0
2096921,2096921,165576,682838,0
2096921,2096921,164940,682873,0
2096921,2096921,165098,682899,0
2096921,2096921,165301,683145,0
2096921,2096921,165549,683194,0
2096921,2096921,165371,683521,0
2096921,2096921,165442,683519,0
2096921,2096921,165582,683620,0
2096921,2096921,165758,683616,0
2096921,2096921,165625,683792,0
2096921,2096921,165524,683511,0
2096921,2096921,165572,683872,0
2096921,2096921,165704,683964,0
2096921,2096921,165526,684255,0
2096921,2096921,165743,684424,0
2096921,2096921,165773,684662,0
2096921,2096921,165748,684565,0
2096921,2096921,165970,684462,0
2096921,2096921,165816,684964,0
2096921,2096921,166054,685074,0
2096921,2096921,165751,684926,0
2096921,2096921,165902,684945,0
2096921,2096921,165768,684807,0
2096921,2096921,166208,685142,0
2096921,2096921,166340,685271,0
2096921,2096921,166044,685465,0
2096921,2096921,165899,685301,0
2096921,2096921,165939,685403,0
2096921,2096921,166045,685859,0
2096921,2096921,166342,685799,0
2096921,2096921,166376,685640,0
2096921,2096921,166263,685665,0
2096921,2096921,165935,685934,0
2096921,2096921,166264,686147,0
2096921,2096921,166623,686146,0
2096921,2096921,166382,686117,0
2096921,2096921,166326,686595,0
2096921,2096921,166450,686391,0
2096921,2096921,166427,686803,0
2096921,2096921,166552,686458,0
2096921,2096921,166325,686655,0
2096921,2096921,166653,686578,0
2096921,2096921,166634,686650,0
2096921,2096921,166752,687005,0
2096921,2096921,166664,687057,0
2096921,2096921,166617,687345,0
2096921,2096921,166720,687320,0
2096921,2096921,166605,687410,0
2096921,2096921,167064,687467,0
2096921,2096921,166570,687492,0
2096921,2096921,167077,687453,0
2096921,2096921,167054,687501,0
2096921,2096921,166915,687421,0
2096921,2096921,166982,688015,0
2096921,2096921,167056,687835,0
2096921,2096921,167009,687819,0
2096921,2096921,166930,688262,0
2096921,2096921,166988,688109,0
2096921,2096921,167050,688525,0
2096921,2096921,167195,688553,0
2096921,2096921,167409,688513,0
2096921,2096921,167277,688628,0
2096921,2096921,167293,688222,0
2096921,2096921,167261,688474,0
2096921,2096921,167363,688513,0
2096921,2096921,167257,688584,0
2096921,2096921,167335,688714,0
2096921,2096921,167532,688942,0
2096921,2096921,167545,688962,0
2096921,2096921,167393,689168,0
2096921,2096921,167599,689011,0
2096921,2096921,167241,689188,0
2096921,2096921,167318,689152,0
2096921,2096921,167510,689879,0
2096921,2096921,167734,689578,0
2096921,2096921,167329,689611,0
2096921,2096921,167669,689440,0
2096921,2096921,167778,689643,0
2096921,2096921,167716,689874,0
2096921,2096921,167579,689906,0
2096921,2096921,167729,689747,0
2096921,2096921,167628,689975,0
2096921,2096921,167632,689964,0
2096921,2096921,168233,690028,0
2096921,2096921,167927,690659,0
2096921,2096921,168083,690483,0
2096921,2096921,167789,690503,0
2096921,2096921,167820,690542,0
2096921,2096921,167976,690691,0
2096921,2096921,167936,690481,0
2096921,2096921,167805,690334,0
2096921,2096921,167782,690607,0
2096921,2096921,167896,690748,0
2096921,2096921,168028,691157,0
2096921,2096921,168083,691193,0
2096921,2096921,168155,691134,0
2096921,2096921,168272,691056,0
2096921,2096921,167988,690945,0
2096921,2096921,167983,691417,0
2096921,2096921,168089,691173,0
2096921,2096921,168230,691085,0
2096921,2096921,168040,691164,0
2096921,2096921,167958,691182,0
2096921,2096921,168256,691416,0
2096921,2096921,168219,691040,0
2096921,2096921,168226,691441,0
2096921,2096921,168321,691667,0
2096921,2096921,168279,691315,0
2096921,2096921,168152,691752,0
2096921,2096921,168173,691716,0
2096921,2096921,168334,691895,0
2096921,2096921,168312,692103,0
2096921,2096921,168240,691861,0
2096921,2096921,168480,691992,0
2096921,2096921,168464,692084,0
2096921,2096921,168561,692290,0
2096921,2096921,168596,692061,0
2096921,2096921,168340,691992,0
2096921,2096921,168464,692538,0
2096921,2096921,168387,692406,0
2096921,2096921,168535,692321,0
2096921,2096921,168562,692032,0
2096921,2096921,168682,692440,0
2096921,2096921,168513,692415,0
2096921,2096921,168668,692462,0
2096921,2096921,168568,692583,0
2096921,2096921,168390,692694,0
2096921,2096921,168533,692775,0
2096921,2096921,168892,692818,0
2096921,2096921,168592,693053,0
2096921,2096921,168567,693047,0
2096921,2096921,168582,692792,0
2096921,2096921,168625,692720,0
2096921,2096921,168919,693320,0
2096921,2096921,168709,692875,0
2096921,2096921,168987,693168,0
2096921,2096921,168950,693227,0
2096921,2096921,168812,693189,0
2096921,2096921,168994,693305,0
2096921,2096921,168971,693225,0
2096921,2096921,168929,692971,0
2096921,2096921,168885,693135,0
2096921,2096921,168734,693040,0
2096921,2096921,168912,693393,0
2096921,2096921,168869,693153,0
2096921,2096921,168956,693442,0
2096921,2096921,168920,693301,0
2096921,2096921,169233,693479,0
2096921,2096921,169061,693670,0
2096921,2096921,169202,693503,0
2096921,2096921,168868,693319,0
2096921,2096921,168842,693229,0
2096921,2096921,168796,693359,0
2096921,2096921,169281,693636,0
2096921,2096921,168831,693814,0
2096921,2096921,169404,693767,0
2096921,2096921,169234,693825,0
2096921,2096921,168913,693642,0
2096921,2096921,168770,694059,0
2096921,2096921,169177,694005,0
2096921,2096921,169195,693847,0
2096921,2096921,169053,693747,0
2096921,2096921,169086,693678,0
2096921,2096921,169244,693874,0
2096921,2096921,169315,694063,0
2096921,2096921,169189,694395,0
2096921,2096921,169093,694370,0
2096921,2096921,168955,693870,0
2096921,2096921,169074,694079,0
2096921,2096921,168952,693669,0
2096921,2096921,169309,693911,0
2096921,2096921,169271,693882,0
2096921,2096921,169272,694021,0
2096921,2096921,169005,693948,0
2096921,2096921,168919,693973,0
2096921,2096921,168970,694376,0
2096921,2096921,169401,694027,0
2096921,2096921,169319,694075,0
2096921,2096921,168966,693778,0
2096921,2096921,169436,693804,0
2096921,2096921,169153,693792,0
2096921,2096921,169234,694332,0
2096921,2096921,169231,694051,0
2096921,2096921,169192,694639,0
2096921,2096921,169141,694192,0
2096921,2096921,169282,694356,0
2096921,2096921,169197,694114,0
2096921,2096921,169102,694290,0
2096921,2096921,169420,694677,0
2096921,2096921,169392,694422,0
2096921,2096921,169172,694261,0
2096921,2096921,169343,694025,0
2096921,2096921,169137,694207,0
2096921,2096921,169261,694499,0
2096921,2096921,169073,694401,0
2096921,2096921,169387,694363,0
2096921,2096921,169295,694453,0
2096921,2096921,169245,694648,0
2096921,2096921,169118,694524,0
2096921,2096921,169354,694495,0
2096921,2096921,169365,694512,0
2096921,2096921,169604,694465,0
2096921,2096921,169466,694667,0
2096921,2096921,169507,694327,0
2096921,2096921,169825,694409,0
2096921,2096921,169732,694356,0
2096921,2096921,169367,694420,0
2096921,2096921,169050,694464,0
2096921,2096921,169689,694543,0
2096921,2096921,169561,694435,0
2096921,2096921,169652,694348,0
2096921,2096921,169254,694504,0
2096921,2096921,169386,694668,0
2096921,2096921,169324,694361,0
2096921,2096921,169274,694497,0
2096921,2096921,169221,694878,0
2096921,2096921,169628,694816,0
2096921,2096921,169601,694974,0
2096921,2096921,169415,694777,0
2096921,2096921,169498,694824,0
2096921,2096921,169474,694761,0
2096921,2096921,169401,694469,0
2096921,2096921,169336,694660,0
2096921,2096921,169423,694772,0
2096921,2096921,169176,694588,0
2096921,2096921,169534,694688,0
2096921,2096921,169297,694981,0
2096921,2096921,169545,694444,0
2096921,2096921,169166,694758,0
2096921,2096921,169323,694723,0
2096921,2096921,169381,694399,0
2096921,2096921,169528,694674,0
2096921,2096921,169307,694552,0
2096921,2096921,169511,694772,0
2096921,2096921,169562,694729,0
2096921,2096921,169586,694906,0
2096921,2096921,169278,694898,0
2096921,2096921,169309,694989,0
2096921,2096921,169448,694635,0
2096921,2096921,169233,694678,0
2096921,2096921,169647,694449,0
2096921,2096921,169508,694277,0
2096921,2096921,169574,694889,0
2096921,2096921,169312,694618,0
2096921,2096921,169471,694676,0
2096921,2096921,169377,694925,0
2096921,2096921,169728,694658,0
2096921,2096921,169516,694828,0
2096921,2096921,169465,694418,0
2096921,2096921,169440,694718,0
2096921,2096921,169307,694591,0
2096921,2096921,169352,694432,0
2096921,2096921,169291,694407,0
2096921,2096921,169548,694736,0
2096921,2096921,169374,694606,0
2096921,2096921,169301,694883,0
2096921,2096921,169451,694846,0
2096921,2096921,169416,694956,0
2096921,2096921,169533,694690,0
2096921,2096921,169490,694345,0
2096921,2096921,169729,694572,0
2096921,2096921,169443,694761,0
2096921,2096921,169353,694598,0
2096921,2096921,169696,694668,0
2096921,2096921,169461,694931,0
2096921,2096921,169358,694591,0
2096921,2096921,169399,694201,0
2096921,2096921,169731,694796,0
2096921,2096921,169404,694890,0
2096921,2096921,169632,694564,0
2096921,2096921,169626,694502,0
2096921,2096921,169536,694529,0
2096921,2096921,169249,694316,0
2096921,2096921,169147,694098,0
2096921,2096921,169278,693941,0
2096921,2096921,169281,694080,0
2096921,2096921,169221,694407,0
2096921,2096921,169226,694507,0
2096921,2096921,169155,694206,0
2096921,2096921,168874,694025,0
2096921,2096921,169063,693716,0
2096921,2096921,168999,693935,0
2096921,2096921,169008,693837,0
2096921,2096921,168822,693336,0
2096921,2096921,168869,693369,0
2096921,2096921,168897,693405,0
2096921,2096921,168946,693499,0
2096921,2096921,168708,693452,0
2096921,2096921,168756,692946,0
2096921,2096921,168621,692568,0
2096921,2096921,168430,692772,0
2096921,2096921,168331,692812,0
2096921,2096921,168842,692353,0
2096921,2096921,168229,692081,0
2096921,2096921,168232,692196,0
2096921,2096921,168290,691861,0
2096921,2096921,168214,691719,0
2096921,2096921,168119,691938,0
2096921,2096921,167651,690522,0
2096921,2096921,167369,690564,0
2096921,2096921,167327,690094,0
2096921,2096921,167458,690123,0
2096921,2096921,167609,690280,0
2096921,2096921,166771,688312,0
2096921,2096921,166407,688126,0
2096921,2096921,166362,688254,0
2096921,2096921,166629,688149,0
2096921,2096921,166433,688321,0
2096921,2096921,165839,687204,0
2096921,2096921,165717,686727,0
2096921,2096921,165809,686702,0
2096921,2096921,165703,686535,0
2096921,2096921,165610,686557,0
2096921,2096921,165246,685573,0
2096921,2096921,165097,685380,0
2096921,2096921,165223,685400,0
2096921,2096921,165336,685232,0
2096921,2096921,165101,685117,0
2096921,2096921,164936,684315,0
2096921,2096921,164834,684504,0
2096921,2096921,164801,684391,0
2096921,2096921,164798,684730,0
2096921,2096921,164595,684423,0
2096921,2096921,164367,684013,0
2096921,2096921,164294,683636,0
2096921,2096921,164287,683701,0
2096921,2096921,164437,683919,0
2096921,2096921,164124,683861,0
2096921,2096921,164375,683490,0
2096921,2096921,164323,683345,0
2096921,2096921,164448,683328,0
2096921,2096921,164331,683222,0
2096921,2096921,164399,683111,0
2096921,2096921,164012,682947,0
2096921,2096921,164053,683212,0
2096921,2096921,163982,683285,0
2096921,2096921,164013,683137,0
2096921,2096921,163938,683106,0
2096921,2096921,164127,683034,0
2096921,2096921,164304,682964,0
2096921,2096921,163710,682985,0
2096921,2096921,163723,682852,0
2096921,2096921,164250,682607,0
2096921,2096921,163983,682878,0
2096921,2096921,163941,682971,0
2096921,2096921,164087,683211,0
2096921,2096921,164000,682777,0
2096921,2096921,164172,682777,0
2096921,2096921,163881,682975,0
2096921,2096921,164280,682872,0
2096921,2096921,164053,682828,0
2096921,2096921,164118,683034,0
2096921,2096921,164282,683100,0
2096921,2096921,164243,683152,0
2096921,2096921,164098,683097,0
2096921,2096921,164231,683056,0
2096921,2096921,164358,682826,0
2096921,2096921,164004,682940,0
2096921,2096921,164119,683145,0
2096921,2096921,164238,682924,0
2096921,2096921,164153,682839,0
2096921,2096921,164056,682918,0
2096921,2096921,163743,683048,0
2096921,2096921,164434,683252,0
2096921,2096921,164569,683476,0
2096921,2096921,164328,683480,0
2096921,2096921,164398,683321,0
2096921,2096921,164065,683172,0
2096921,2096921,164301,683402,0
2096921,2096921,164429,683475,0
2096921,2096921,164328,683830,0
2096921,2096921,164240,683275,0
2096921,2096921,164338,683660,0
2096921,2096921,164435,683554,0
2096921,2096921,164774,683702,0
2096921,2096921,164541,683834,0
2096921,2096921,164389,683975,0
2096921,2096921,164642,683654,0
2096921,2096921,164442,684142,0
2096921,2096921,164526,684099,0
2096921,2096921,164760,683725,0
2096921,2096921,164853,684042,0
2096921,2096921,164799,683974,0
2096921,2096921,164950,683974,0
2096921,2096921,164665,684399,0
2096921,2096921,164865,684110,0
2096921,2096921,165191,684353,0
2096921,2096921,164739,684340,0
2096921,2096921,165169,684497,0
2096921,2096921,165123,684399,0
2096921,2096921,164941,684553,0
2096921,2096921,164626,684587,0
2096921,2096921,164818,684264,0
2096921,2096921,164683,684295,0
2096921,2096921,165121,684607,0
2096921,2096921,165135,684640,0
2096921,2096921,165193,684680,0
2096921,2096921,164893,684713,0
2096921,2096921,165458,684655,0
2096921,2096921,165432,685106,0
2096921,2096921,165502,684934,0
2096921,2096921,165354,684790,0
2096921,2096921,165394,684807,0
2096921,2096921,165333,684998,0
2096921,2096921,165557,685105,0
2096921,2096921,165509,684982,0
2096921,2096921,165434,684868,0
2096921,2096921,165338,685049,0
2096921,2096921,165530,685424,0
2096921,2096921,165588,685618,0
2096921,2096921,165517,685420,0
2096921,2096921,165376,685555,0
2096921,2096921,165410,685322,0
2096921,2096921,165652,685412,0
2096921,2096921,165842,685493,0
2096921,2096921,165747,685632,0
2096921,2096921,165689,685725,0
2096921,2096921,165572,685891,0
2096921,2096921,165734,685942,0
2096921,2096921,165794,686232,0
2096921,2096921,165548,685910,0
2096921,2096921,165717,685827,0
2096921,2096921,165734,685676,0
2096921,2096921,165878,685896,0
2096921,2096921,165885,686107,0
2096921,2096921,165949,686102,0
2096921,2096921,165999,685990,0
2096921,2096921,165789,685749,0
2096921,2096921,165832,686123,0
2096921,2096921,166095,686369,0
2096921,2096921,165777,685822,0
2096921,2096921,166065,686037,0
2096921,2096921,166074,686088,0
2096921,2096921,166361,686233,0
2096921,2096921,166157,686153,0
2096921,2096921,166151,686091,0
2096921,2096921,166156,686361,0
2096921,2096921,166353,686074,0
2096921,2096921,166211,685968,0
2096921,2096921,165913,686318,0
2096921,2096921,166059,685824,0
2096921,2096921,166106,685989,0
2096921,2096921,165884,685910,0
2096921,2096921,166050,685943,0
2096921,2096921,166138,686142,0
2096921,2096921,166218,686100,0
2096921,2096921,166180,686141,0
2096921,2096921,165949,685997,0
2096921,2096921,166008,685944,0
2096921,2096921,165816,685880,0
2096921,2096921,165754,685817,0
2096921,2096921,165674,685554,0
2096921,2096921,165844,685677,0
2096921,2096921,165752,685679,0
2096921,2096921,165848,685579,0
2096921,2096921,165973,685278,0
2096921,2096921,165782,685482,0
2096921,2096921,165676,685463,0
2096921,2096921,165798,685209,0
2096921,2096921,165833,684966,0
2096921,2096921,165932,685025,0
2096921,2096921,165999,685216,0
2096921,2096921,166058,685286,0
2096921,2096921,165735,684793,0
2096921,2096921,165789,684987,0
2096921,2096921,165584,685071,0
2096921,2096921,165769,685173,0
2096921,2096921,165736,685187,0
2096921,2096921,165806,684602,0
2096921,2096921,165779,684557,0
2096921,2096921,165502,684502,0
2096921,2096921,165394,684388,0
2096921,2096921,165630,684183,0
2096921,2096921,165473,684060,0
2096921,2096921,165371,684234,0
2096921,2096921,165585,684398,0
2096921,2096921,165638,684103,0
2096921,2096921,165677,684380,0
2096921,2096921,165403,684237,0
2096921,2096921,165280,683956,0
2096921,2096921,165555,683559,0
2096921,2096921,165462,683803,0
2096921,2096921,165423,683848,0
2096921,2096921,165303,683670,0
2096921,2096921,165400,683634,0
2096921,2096921,165549,683347,0
2096921,2096921,165363,683427,0
2096921,2096921,165467,683628,0
2096921,2096921,165333,683279,0
2096921,2096921,165411,683430,0
2096921,2096921,165155,683162,0
2096921,2096921,165315,683224,0
2096921,2096921,165117,683423,0
2096921,2096921,165444,683073,0
2096921,2096921,165191,682866,0
2096921,2096921,165250,683083,0
2096921,2096921,165223,683071,0
2096921,2096921,165348,683223,0
2096921,2096921,165049,683187,0
2096921,2096921,165309,683018,0
2096921,2096921,164787,683133,0
2096921,2096921,165199,682940,0
2096921,2096921,165054,682714,0
2096921,2096921,165147,682211,0
2096921,2096921,165197,682612,0
2096921,2096921,165392,682762,0
2096921,2096921,165145,682856,0
2096921,2096921,165160,682903,0
2096921,2096921,165073,682574,0
2096921,2096921,164800,682437,0
2096921,2096921,165144,682414,0
2096921,2096921,165122,682439,0
2096921,2096921,164984,682386,0
2096921,2096921,164869,682510,0
2096921,2096921,165238,682496,0
2096921,2096921,165059,682522,0
2096921,2096921,165290,682756,0
2096921,2096921,165089,682637,0
2096921,2096921,165443,682665,0
2096921,2096921,165169,682700,0
2096921,2096921,165190,682780,0
2096921,2096921,165241,682995,0
2096921,2096921,165265,682437,0
2096921,2096921,165180,682612,0
2096921,2096921,165466,682280,0
2096921,2096921,165289,682434,0
2096921,2096921,165426,682510,0
2096921,2096921,165345,682824,0
2096921,2096921,165397,682798,0
2096921,2096921,165091,682928,0
2096921,2096921,165043,682367,0
2096921,2096921,165412,682392,0
2096921,2096921,165533,682317,0
2096921,2096921,165329,682316,0
2096921,2096921,165514,682162,0
2096921,2096921,165319,682310,0
2096921,2096921,165278,682162,0
2096921,2096921,165532,682410,0
2096921,2096921,165472,682374,0
2096921,2096921,165509,682080,0
2096921,2096921,165015,681846,0
2096921,2096921,165378,682128,0
2096921,2096921,165307,681985,0
2096921,2096921,165870,681974,0
2096921,2096921,165301,682081,0
2096921,2096921,165614,682330,0
2096921,2096921,165542,682373,0
2096921,2096921,165860,682250,0
2096921,2096921,165128,682076,0
2096921,2096921,165474,682030,0
2096921,2096921,165212,681649,0
2096921,2096921,165579,681836,0
2096921,2096921,165290,682008,0
2096921,2096921,165350,682161,0
2096921,2096921,165384,681941,0
2096921,2096921,165218,681844,0
2096921,2096921,165372,682024,0
2096921,2096921,165565,682034,0
2096921,2096921,165415,681878,0
2096921,2096921,165372,681630,0
2096921,2096921,165563,681830,0
2096921,2096921,165371,681943,0
2096921,2096921,165220,682018,0
2096921,2096921,165306,681875,0
2096921,2096921,165433,681620,0
2096921,2096921,165174,681655,0
2096921,2096921,165265,681957,0
2096921,2096921,165203,681805,0
2096921,2096921,165485,681620,0
2096921,2096921,165668,681746,0
2096921,2096921,165563,681349,0
2096921,2096921,165297,681286,0
2096921,2096921,165390,681271,0
2096921,2096921,165336,681343,0
2096921,2096921,165517,681008,0
2096921,2096921,165332,681694,0
2096921,2096921,165357,681314,0
2096921,2096921,165456,681700,0
2096921,2096921,165619,681381,0
2096921,2096921,165235,681410,0
2096921,2096921,165350,680984,0
2096921,2096921,165202,680862,0
2096921,2096921,165188,680894,0
2096921,2096921,165511,681164,0
2096921,2096921,165217,680830,0
2096921,2096921,165365,681108,0
2096921,2096921,165348,681344,0
2096921,2096921,165428,681347,0
2096921,2096921,165449,681268,0
2096921,2096921,165462,680898,0
2096921,2096921,165167,681190,0
2096921,2096921,165544,680807,0
2096921,2096921,165463,681067,0
2096921,2096921,165550,680624,0
2096921,2096921,165347,680734,0
2096921,2096921,165323,680738,0
2096921,2096921,164944,680999,0
2096921,2096921,165100,680841,0
2096921,2096921,165037,680577,0
2096921,2096921,165501,680646,0
2096921,2096921,165439,680413,0
2096921,2096921,165585,680633,0
2096921,2096921,165510,680692,0
2096921,2096921,165458,680483,0
2096921,2096921,165549,680272,0
2096921,2096921,165322,680609,0
2096921,2096921,165196,680423,0
2096921,2096921,165392,680027,0
2096921,2096921,165513,680294,0
2096921,2096921,165518,679725,0
2096921,2096921,165453,680180,0
2096921,2096921,165461,679999,0
2096921,2096921,165251,680073,0
2096921,2096921,165433,680027,0
2096921,2096921,165575,679789,0
2096921,2096921,165575,679869,0
2096921,2096921,165321,680020,0
2096921,2096921,165389,679953,0
2096921,2096921,165173,679780,0
2096921,2096921,165225,679760,0
2096921,2096921,165212,679744,0
2096921,2096921,165284,679573,0
2096921,2096921,165532,679432,0
2096921,2096921,165030,679329,0
2096921,2096921,165408,679250,0
2096921,2096921,165194,679742,0
2096921,2096921,165335,679779,0
2096921,2096921,165121,679727,0
2096921,2096921,165479,679235,0
2096921,2096921,165479,679246,0
2096921,2096921,165330,679192,0
2096921,2096921,165370,679296,0
2096921,2096921,165279,679437,0
2096921,2096921,165180,679199,0
2096921,2096921,165553,679195,0
2096921,2096921,165494,679033,0
2096921,2096921,165485,679332,0
2096921,2096921,165234,678939,0
2096921,2096921,165093,678817,0
2096921,2096921,164992,678844,0
2096921,2096921,164987,678562,0
2096921,2096921,164973,678804,0
2096921,2096921,164996,678582,0
2096921,2096921,165169,678687,0
2096921,2096921,165147,678464,0
2096921,2096921,165227,678671,0
2096921,2096921,165148,678492,0
2096921,2096921,165367,678551,0
2096921,2096921,165038,678410,0
2096921,2096921,165046,678281,0
2096921,2096921,165121,678561,0
2096921,2096921,164961,678517,0
2096921,2096921,164977,678238,0
2096921,2096921,164984,677953,0
2096921,2096921,164943,678086,0
2096921,2096921,165001,677826,0
2096921,2096921,164903,678164,0
2096921,2096921,164940,678262,0
2096921,2096921,164853,677743,0
2096921,2096921,165086,677775,0
2096921,2096921,164855,677635,0
2096921,2096921,164765,677537,0
2096921,2096921,164892,677951,0
2096921,2096921,164841,677412,0
2096921,2096921,164915,677669,0
2096921,2096921,164957,677685,0
2096921,2096921,164918,677705,0
2096921,2096921,164591,677479,0
2096921,2096921,164836,677461,0
2096921,2096921,164861,677232,0
2096921,2096921,164576,677244,0
2096921,2096921,164797,677381,0
2096921,2096921,164935,677348,0
2096921,2096921,164579,676785,0
2096921,2096921,164561,676957,0
2096921,2096921,164597,677023,0
2096921,2096921,164762,677248,0
2096921,2096921,164803,677052,0
2096921,2096921,164912,677076,0
2096921,2096921,164989,676642,0
2096921,2096921,164386,676596,0
2096921,2096921,164812,676833,0
2096921,2096921,164967,676287,0
2096921,2096921,164733,676105,0
2096921,2096921,164858,676357,0
2096921,2096921,164773,676383,0
2096921,2096921,164747,676530,0
2096921,2096921,164735,676652,0
2096921,2096921,164559,676122,0
2096921,2096921,164798,676377,0
2096921,2096921,164698,676129,0
2096921,2096921,164924,676038,0
2096921,2096921,164699,676104,0
2096921,2096921,164472,675756,0
2096921,2096921,164537,675772,0
2096921,2096921,164411,675920,0
2096921,2096921,164832,676210,0
2096921,2096921,164773,675976,0
2096921,2096921,164392,675536,0
2096921,2096921,164606,675813,0
2096921,2096921,164543,675653,0
2096921,2096921,164514,675762,0
2096921,2096921,164457,675641,0
2096921,2096921,164821,675414,0
2096921,2096921,164728,675407,0
2096921,2096921,164711,675333,0
2096921,2096921,164760,675290,0
2096921,2096921,164233,675218,0
2096921,2096921,164207,675353,0
2096921,2096921,164269,675275,0
2096921,2096921,164284,675040,0
2096921,2096921,164302,675019,0
2096921,2096921,164350,674741,0
2096921,2096921,164423,674794,0
2096921,2096921,164224,674805,0
2096921,2096921,164400,674862,0
2096921,2096921,164419,674917,0
2096921,2096921,164370,675043,0
2096921,2096921,164287,674518,0
2096921,2096921,164264,674787,0
2096921,2096921,164517,674736,0
2096921,2096921,164252,674654,0
2096921,2096921,164768,674276,0
2096921,2096921,164373,674340,0
2096921,2096921,164612,674212,0
2096921,2096921,164081,674443,0
2096921,2096921,164454,674373,0
2096921,2096921,164292,674353,0
2096921,2096921,164235,674263,0
2096921,2096921,164061,674258,0
2096921,2096921,164126,674244,0
2096921,2096921,164243,673987,0
2096921,2096921,164125,673785,0
2096921,2096921,164028,673692,0
2096921,2096921,163868,673651,0
2096921,2096921,164462,673597,0
2096921,2096921,164307,673810,0
2096921,2096921,163971,673883,0
2096921,2096921,164189,673511,0
2096921,2096921,164222,673329,0
2096921,2096921,164077,673378,0
2096921,2096921,163930,673281,0
2096921,2096921,163817,673109,0
2096921,2096921,163911,672962,0
2096921,2096921,163924,672874,0
2096921,2096921,164045,673075,0
2096921,2096921,163765,673175,0
2096921,2096921,163905,672955,0
2096921,2096921,164039,672951,0
2096921,2096921,163961,672955,0
2096921,2096921,164052,672999,0
2096921,2096921,163976,673116,0
2096921,2096921,163656,672901,0
2096921,2096921,163827,672588,0
2096921,2096921,163686,672578,0
2096921,2096921,163566,672472,0
2096921,2096921,163831,672411,0
2096921,2096921,163839,672327,0
2096921,2096921,163715,672667,0
2096921,2096921,163534,672359,0
2096921,2096921,163800,672590,0
2096921,2096921,163612,672472,0
2096921,2096921,163898,672051,0
2096921,2096921,163783,671880,0
2096921,2096921,163844,671877,0
2096921,2096921,163673,672044,0
2096921,2096921,163865,672364,0
2096921,2096921,163519,672353,0
2096921,2096921,163511,671955,0
2096921,2096921,163760,671962,0
2096921,2096921,163524,671702,0
2096921,2096921,163552,672112,0
2096921,2096921,163471,671716,0
2096921,2096921,163654,671087,0
2096921,2096921,163401,671296,0
2096921,2096921,163199,671280,0
2096921,2096921,163478,671299,0
2096921,2096921,163249,671293,0
2096921,2096921,162910,670755,0
2096921,2096921,163088,670757,0
2096921,2096921,163181,670533,0
2096921,2096921,163073,670649,0
2096921,2096921,163255,670565,0
2096921,2096921,162942,670086,0
2096921,2096921,162761,669926,0
2096921,2096921,162910,669796,0
2096921,2096921,162906,670057,0
2096921,2096921,162786,670086,0
2096921,2096921,162589,669130,0
2096921,2096921,162272,668998,0
2096921,2096921,162332,668941,0
2096921,2096921,162375,668682,0
2096921,2096921,162450,668936,0
2096921,2096921,162258,668018,0
2096921,2096921,162144,667986,0
2096921,2096921,161965,667805,0
2096921,2096921,161882,668075,0
2096921,2096921,162174,667738,0
2096921,2096921,161092,666160,0
2096921,2096921,161314,666154,0
2096921,2096921,161243,666226,0
2096921,2096921,161211,666226,0
2096921,2096921,161214,665973,0
2096921,2096921,160293,664132,0
2096921,2096921,160035,663688,0
2096921,2096921,160186,664027,0
2096921,2096921,160441,663361,0
2096921,2096921,160219,663868,0
2096921,2096921,159359,662488,0
2096921,2096921,159292,662319,0
2096921,2096921,159407,662081,0
2096921,2096921,159675,661987,0
2096921,2096921,159525,661957,0
2096921,2096921,158958,661015,0
2096921,2096921,159019,660764,0
2096921,2096921,158998,660809,0
2096921,2096921,158861,660902,0
2096921,2096921,159124,660758,0
2096921,2096921,158540,659790,0
2096921,2096921,158571,659656,0
2096921,2096921,158214,659268,0
2096921,2096921,158681,659388,0
2096921,2096921,158363,659628,0
2096921,2096921,158510,658959,0
2096921,2096921,158141,658659,0
2096921,2096921,158213,659060,0
2096921,2096921,157850,658957,0
2096921,2096921,157994,659023,0
2096921,2096921,157546,658484,0
2096921,2096921,157751,658383,0
2096921,2096921,157837,658275,0
2096921,2096921,157744,658234,0
2096921,2096921,158037,658414,0
2096921,2096921,157849,657949,0
2096921,2096921,157807,657962,0
2096921,2096921,157838,657733,0
2096921,2096921,157696,657712,0
2096921,2096921,157687,657796,0
2096921,2096921,157757,657884,0
2096921,2096921,157785,657532,0
2096921,2096921,157500,657669,0
2096921,2096921,157442,657494,0
2096921,2096921,157465,657387,0
2096921,2096921,157610,657520,0
2096921,2096921,157452,657498,0
2096921,2096921,157346,657354,0
2096921,2096921,157423,657624,0
2096921,2096921,157807,657386,0
2096921,2096921,157411,657579,0
2096921,2096921,157610,657300,0
2096921,2096921,157654,657264,0
2096921,2096921,157506,657367,0
2096921,2096921,157270,657407,0
2096921,2096921,157482,657175,0
2096921,2096921,157733,657286,0
2096921,2096921,157405,657191,0
2096921,2096921,157722,657416,0
2096921,2096921,157384,657301,0
2096921,2096921,157759,657276,0
2096921,2096921,157494,657145,0
2096921,2096921,157719,657207,0
2096921,2096921,157508,657030,0
2096921,2096921,157700,657387,0
2096921,2096921,157756,657526,0
2096921,2096921,157820,657369,0
2096921,2096921,157883,657271,0
2096921,2096921,157917,657551,0
2096921,2096921,157818,657729,0
2096921,2096921,157937,657931,0
2096921,2096921,157874,657849,0
2096921,2096921,157731,657453,0
2096921,2096921,158133,657496,0
2096921,2096921,158183,657554,0
2096921,2096921,158114,658006,0
2096921,2096921,158085,657943,0
2096921,2096921,158125,657788,0
2096921,2096921,158105,658018,0
2096921,2096921,157950,658018,0
2096921,2096921,158184,658298,0
2096921,2096921,158034,658237,0
2096921,2096921,157923,658040,0
2096921,2096921,158098,658316,0
2096921,2096921,158277,658151,0
2096921,2096921,158384,658395,0
2096921,2096921,158523,658646,0
2096921,2096921,158368,658647,0
2096921,2096921,158482,658674,0
2096921,2096921,158227,658350,0
2096921,2096921,158302,658416,0
2096921,2096921,158427,658825,0
2096921,2096921,158485,658625,0
2096921,2096921,158440,658791,0
2096921,2096921,158446,658658,0
2096921,2096921,158538,658796,0
2096921,2096921,158580,658686,0
2096921,2096921,158528,659050,0
2096921,2096921,158355,658842,0
2096921,2096921,158224,659210,0
2096921,2096921,158257,659296,0
2096921,2096921,158775,659558,0
2096921,2096921,158608,659042,0
2096921,2096921,158704,658924,0
2096921,2096921,158653,658924,0
2096921,2096921,158828,659599,0
2096921,2096921,158949,659223,0
2096921,2096921,158916,659341,0
2096921,2096921,158557,659814,0
2096921,2096921,158934,659571,0
2096921,2096921,159006,659795,0
2096921,2096921,159198,659835,0
2096921,2096921,158976,660050,0
2096921,2096921,159063,659820,0
2096921,2096921,158891,659536,0
2096921,2096921,159130,659916,0
2096921,2096921,159387,659992,0
2096921,2096921,159410,660286,0
2096921,2096921,159141,660254,0
2096921,2096921,159398,660443,0
2096921,2096921,159274,660251,0
2096921,2096921,159374,660430,0
2096921,2096921,159264,660430,0
2096921,2096921,159527,660457,0
2096921,2096921,158942,660240,0
2096921,2096921,159536,660460,0
2096921,2096921,159626,660736,0
2096921,2096921,159698,660621,0
2096921,2096921,159564,660830,0
2096921,2096921,159404,660763,0
2096921,2096921,159659,661155,0
2096921,2096921,159384,661014,0
2096921,2096921,159503,661086,0
2096921,2096921,159607,660923,0
2096921,2096921,159726,660719,0
2096921,2096921,159784,661058,0
2096921,2096921,159805,661338,0
2096921,2096921,159768,661122,0
2096921,2096921,159654,660959,0
2096921,2096921,159692,661076,0
2096921,2096921,159640,661318,0
2096921,2096921,159672,661262,0
2096921,2096921,159728,661097,0
2096921,2096921,159774,661176,0
2096921,2096921,159825,661224,0
2096921,2096921,159885,661149,0
2096921,2096921,159865,661162,0
2096921,2096921,159707,661293,0
2096921,2096921,159762,661234,0
2096921,2096921,159570,661299,0
2096921,2096921,159918,661093,0
2096921,2096921,159687,661267,0
2096921,2096921,159832,661418,0
2096921,2096921,159762,661073,0
2096921,2096921,159689,660815,0
2096921,2096921,159883,661124,0
2096921,2096921,159561,661236,0
2096921,2096921,159837,661262,0
2096921,2096921,159720,661661,0
2096921,2096921,159846,661421,0
2096921,2096921,159694,661292,0
2096921,2096921,159506,661497,0
2096921,2096921,159805,661177,0
2096921,2096921,159813,661413,0
2096921,2096921,159665,660872,0
2096921,2096921,159763,661093,0
2096921,2096921,159734,661081,0
2096921,2096921,159622,661073,0
2096921,2096921,159875,661088,0
2096921,2096921,159878,661200,0
2096921,2096921,159452,661122,0
2096921,2096921,159668,661132,0
2096921,2096921,159799,660891,0
2096921,2096921,159460,661118,0
2096921,2096921,159856,661231,0
2096921,2096921,159739,660892,0
2096921,2096921,159628,660854,0
2096921,2096921,159579,660804,0
2096921,2096921,159594,660889,0
2096921,2096921,159571,661250,0
2096921,2096921,159623,660862,0
2096921,2096921,159641,660947,0
2096921,2096921,159501,660921,0
2096921,2096921,159428,660913,0
2096921,2096921,159325,660856,0
2096921,2096921,159764,660955,0
2096921,2096921,159284,661099,0
2096921,2096921,159324,660837,0
2096921,2096921,159529,660692,0
2096921,2096921,159595,660737,0
2096921,2096921,159573,660830,0
2096921,2096921,159583,660805,0
2096921,2096921,159474,661128,0
2096921,2096921,159535,660878,0
2096921,2096921,159492,660748,0
2096921,2096921,159488,660826,0
2096921,2096921,159683,660732,0
2096921,2096921,159564,660525,0
2096921,2096921,159541,660913,0
2096921,2096921,159536,661062,0
2096921,2096921,159689,661363,0
2096921,2096921,159643,660954,0
2096921,2096921,159745,660910,0
2096921,2096921,159555,661019,0
2096921,2096921,159407,661164,0
2096921,2096921,159566,661063,0
2096921,2096921,159425,661447,0
2096921,2096921,159603,661101,0
2096921,2096921,159737,661178,0
2096921,2096921,159670,661115,0
2096921,2096921,159895,661656,0
2096921,2096921,159855,661619,0
2096921,2096921,159913,661526,0
2096921,2096921,159681,661238,0
2096921,2096921,159688,661433,0
2096921,2096921,159822,661388,0
2096921,2096921,159927,661852,0
2096921,2096921,159841,661590,0
2096921,2096921,159853,661749,0
2096921,2096921,159565,661903,0
2096921,2096921,160112,662233,0
2096921,2096921,159826,661852,0
2096921,2096921,159803,661815,0
2096921,2096921,159766,661805,0
2096921,2096921,159922,662015,0
2096921,2096921,160193,662005,0
2096921,2096921,160033,662061,0
2096921,2096921,160048,662082,0
2096921,2096921,160133,661980,0
2096921,2096921,160150,662499,0
2096921,2096921,160236,662316,0
2096921,2096921,160126,662332,0
2096921,2096921,160240,662361,0
2096921,2096921,160184,662499,0
2096921,2096921,160295,662169,0
2096921,2096921,160535,662454,0
2096921,2096921,160498,662436,0
2096921,2096921,160163,662461,0
2096921,2096921,160248,662155,0
2096921,2096921,160114,662412,0
2096921,2096921,160472,662688,0
2096921,2096921,160425,662803,0
2096921,2096921,160502,662779,0
2096921,2096921,160423,662742,0
2096921,2096921,160402,662761,0
2096921,2096921,160408,663251,0
2096921,2096921,160543,663006,0
2096921,2096921,160430,663027,0
2096921,2096921,160538,663004,0
2096921,2096921,160537,663048,0
2096921,2096921,160342,663164,0
2096921,2096921,160495,663353,0
2096921,2096921,160246,663312,0
2096921,2096921,160340,663463,0
2096921,2096921,160577,662858,0
2096921,2096921,160797,663229,0
2096921,2096921,160644,663366,0
2096921,2096921,160653,663428,0
2096921,2096921,160640,663420,0
2096921,2096921,160426,663511,0
2096921,2096921,160784,663292,0
2096921,2096921,160861,663486,0
2096921,2096921,160799,663417,0
2096921,2096921,160656,663594,0
2096921,2096921,160646,663543,0
2096921,2096921,160808,663655,0
2096921,2096921,160803,663729,0
2096921,2096921,160753,663769,0
2096921,2096921,161022,663906,0
2096921,2096921,161093,663828,0
2096921,2096921,160740,664179,0
2096921,2096921,161035,663958,0
2096921,2096921,160635,663858,0
2096921,2096921,160781,663618,0
2096921,2096921,160907,663793,0
2096921,2096921,161262,663932,0
2096921,2096921,161248,664087,0
2096921,2096921,161336,663993,0
2096921,2096921,161066,664364,0
2096921,2096921,161097,664055,0
2096921,2096921,161270,664174,0
2096921,2096921,161350,664282,0
2096921,2096921,161365,664329,0
2096921,2096921,161150,664321,0
2096921,2096921,161165,664062,0
2096921,2096921,161395,664333,0
2096921,2096921,161524,664302,0
2096921,2096921,161158,664639,0
2096921,2096921,161246,664661,0
2096921,2096921,161242,664602,0
2096921,2096921,161250,664720,0
2096921,2096921,161378,664608,0
2096921,2096921,161371,664800,0
2096921,2096921,161340,664761,0
2096921,2096921,161225,664831,0
2096921,2096921,161333,665010,0
2096921,2096921,161593,665212,0
2096921,2096921,161458,664998,0
2096921,2096921,161295,665188,0
2096921,2096921,161470,665041,0
2096921,2096921,161351,665212,0
2096921,2096921,161523,664974,0
2096921,2096921,161388,665387,0
2096921,2096921,161312,665241,0
2096921,2096921,161421,665068,0
2096921,2096921,161574,664883,0
2096921,2096921,161582,665138,0
2096921,2096921,161452,665325,0
2096921,2096921,161636,665569,0
2096921,2096921,161738,665440,0
2096921,2096921,161791,665514,0
2096921,2096921,161693,665681,0
2096921,2096921,161592,665320,0
2096921,2096921,161558,665415,0
2096921,2096921,161484,665469,0
2096921,2096921,161756,665429,0
2096921,2096921,161889,665933,0
2096921,2096921,161630,665827,0
2096921,2096921,161849,665899,0
2096921,2096921,161851,665894,0
2096921,2096921,161857,666025,0
2096921,2096921,161786,666086,0
2096921,2096921,161776,666039,0
2096921,2096921,161790,666066,0
2096921,2096921,161816,665910,0
2096921,2096921,161714,665905,0
2096921,2096921,162014,665934,0
2096921,2096921,161776,666162,0
2096921,2096921,161805,666506,0
2096921,2096921,161610,666294,0
2096921,2096921,162074,666398,0
2096921,2096921,162076,666330,0
2096921,2096921,161875,666241,0
2096921,2096921,161934,666181,0
2096921,2096921,162135,666403,0
2096921,2096921,162196,666236,0
2096921,2096921,162156,666416,0
2096921,2096921,162055,666554,0
2096921,2096921,162203,667018,0
2096921,2096921,161766,666685,0
2096921,2096921,161779,666855,0
2096921,2096921,162097,666815,0
2096921,2096921,161904,667178,0
2096921,2096921,162070,666399,0
2096921,2096921,162149,666700,0
2096921,2096921,162214,667196,0
2096921,2096921,162243,667201,0
2096921,2096921,162193,667134,0
2096921,2096921,161919,666763,0
2096921,2096921,162025,667036,0
2096921,2096921,162060,667124,0
2096921,2096921,162062,667302,0
2096921,2096921,162136,667145,0
2096921,2096921,162402,667510,0
2096921,2096921,162299,666981,0
2096921,2096921,162400,667543,0
2096921,2096921,162598,667451,0
2096921,2096921,162231,667272,0
2096921,2096921,162311,667575,0
2096921,2096921,162207,667628,0
2096921,2096921,162267,667662,0
2096921,2096921,162461,667622,0
2096921,2096921,162538,667879,0
2096921,2096921,162191,667447,0
2096921,2096921,162367,667464,0
2096921,2096921,162400,667728,0
2096921,2096921,162168,667897,0
2096921,2096921,162484,667674,0
2096921,2096921,162548,667869,0
2096921,2096921,162585,668023,0
2096921,2096921,162640,668208,0
2096921,2096921,162680,667936,0
2096921,2096921,162405,667999,0
2096921,2096921,162582,667640,0
2096921,2096921,162376,667846,0
2096921,2096921,162639,668104,0
2096921,2096921,162752,668447,0
2096921,2096921,162700,668582,0
2096921,2096921,162828,668615,0
2096921,2096921,162853,668304,0
2096921,2096921,162590,668514,0
2096921,2096921,162791,668602,0
2096921,2096921,162732,668910,0
2096921,2096921,162644,668821,0
2096921,2096921,162710,669045,0
2096921,2096921,162812,668952,0
2096921,2096921,162887,669061,0
2096921,2096921,162624,669008,0
2096921,2096921,162757,669059,0
2096921,2096921,162803,668793,0
2096921,2096921,162686,669045,0
2096921,2096921,162914,669007,0
2096921,2096921,162862,668851,0
2096921,2096921,162814,668914,0
2096921,2096921,162728,669093,0
2096921,2096921,162770,669662,0
2096921,2096921,162924,669327,0
2096921,2096921,162890,669333,0
2096921,2096921,163102,669595,0
2096921,2096921,162708,669660,0
2096921,2096921,163206,669570,0
2096921,2096921,162968,669626,0
2096921,2096921,163203,669794,0
2096921,2096921,162983,669664,0
2096921,2096921,163037,669537,0
2096921,2096921,162799,669610,0
2096921,2096921,162938,669926,0
2096921,2096921,162918,669988,0
2096921,2096921,163233,670090,0
2096921,2096921,163148,670201,0
2096921,2096921,163229,670149,0
2096921,2096921,163185,670495,0
2096921,2096921,163135,670356,0
2096921,2096921,163266,670318,0
2096921,2096921,163181,670125,0
2096921,2096921,163522,670529,0
2096921,2096921,163378,670576,0
2096921,2096921,163408,670662,0
2096921,2096921,163171,670499,0
2096921,2096921,163230,670582,0
2096921,2096921,163115,670681,0
2096921,2096921,163326,670814,0
2096921,2096921,163415,670517,0
2096921,2096921,163416,670706,0
2096921,2096921,163356,670444,0
2096921,2096921,163427,671174,0
2096921,2096921,163407,670884,0
2096921,2096921,163344,671065,0
2096921,2096921,163562,671226,0
2096921,2096921,163436,671129,0
2096921,2096921,163370,671138,0
2096921,2096921,163294,671256,0
2096921,2096921,163520,671341,0
2096921,2096921,163188,671302,0
2096921,2096921,163144,671433,0
2096921,2096921,163676,671411,0
2096921,2096921,163381,671573,0
2096921,2096921,163451,671745,0
2096921,2096921,163221,671399,0
2096921,2096921,163300,671412,0
2096921,2096921,163405,671437,0
2096921,2096921,163471,671652,0
2096921,2096921,163783,671724,0
2096921,2096921,163644,671721,0
2096921,2096921,163687,671495,0
2096921,2096921,163761,671936,0
2096921,2096921,163717,672204,0
2096921,2096921,163839,672279,0
2096921,2096921,163755,672256,0
2096921,2096921,163735,672150,0
2096921,2096921,163814,672359,0
2096921,2096921,163873,672359,0
2096921,2096921,163518,672308,0
2096921,2096921,163722,672061,0
2096921,2096921,163706,672344,0
2096921,2096921,164012,672528,0
2096921,2096921,163699,672453,0
2096921,2096921,163941,672654,0
2096921,2096921,163666,672717,0
2096921,2096921,163811,672638,0
2096921,2096921,163807,672896,0
2096921,2096921,164025,672975,0
2096921,2096921,163825,673087,0
2096921,2096921,163823,673125,0
2096921,2096921,163740,672778,0
2096921,2096921,163970,673052,0
2096921,2096921,163778,673329,0
2096921,2096921,163836,673399,0
2096921,2096921,164268,673296,0
2096921,2096921,164088,673111,0
2096921,2096921,164092,673224,0
2096921,2096921,163821,673212,0
2096921,2096921,164082,673041,0
2096921,2096921,163978,673418,0
2096921,2096921,164410,673411,0
2096921,2096921,163997,673361,0
2096921,2096921,164254,673633,0
2096921,2096921,164070,673440,0
2096921,2096921,164014,673403,0
2096921,2096921,163908,673500,0
2096921,2096921,163763,673573,0
2096921,2096921,163814,673408,0
2096921,2096921,164079,673890,0
2096921,2096921,163899,673346,0
2096921,2096921,163989,673551,0
2096921,2096921,163703,673206,0
2096921,2096921,163921,673153,0
2096921,2096921,163500,672982,0
2096921,2096921,163887,673291,0
2096921,2096921,163821,673183,0
2096921,2096921,163477,673102,0
2096921,2096921,163582,672908,0
2096921,2096921,163554,672966,0
2096921,2096921,163424,672762,0
2096921,2096921,163354,673106,0
2096921,2096921,162879,672283,0
2096921,2096921,163272,672490,0
2096921,2096921,163054,672147,0
2096921,2096921,163331,672334,0
2096921,2096921,163199,672617,0
2096921,2096921,162803,671717,0
2096921,2096921,162554,671205,0
2096921,2096921,162807,671219,0
2096921,2096921,162497,670980,0
2096921,2096921,162547,671166,0
2096921,2096921,161780,669585,0
2096921,2096921,161753,669399,0
2096921,2096921,161778,669385,0
2096921,2096921,161780,669315,0
2096921,2096921,161733,669630,0
2096921,2096921,161293,668552,0
2096921,2096921,161115,668312,0
2096921,2096921,161298,668048,0
2096921,2096921,161072,668258,0
2096921,2096921,161232,667922,0
2096921,2096921,160484,667506,0
2096921,2096921,160882,667456,0
2096921,2096921,160776,667192,0
2096921,2096921,160802,667383,0
2096921,2096921,160463,667481,0
2096921,2096921,160494,666897,0
2096921,2096921,160238,666687,0
2096921,2096921,160294,666804,0
2096921,2096921,160202,666901,0
2096921,2096921,160330,666858,0
2096921,2096921,160296,666519,0
2096921,2096921,160107,666705,0
2096921,2096921,160036,666609,0
2096921,2096921,160061,666622,0
2096921,2096921,160446,666283,0
2096921,2096921,160146,666386,0
2096921,2096921,159939,666368,0
2096921,2096921,160053,666256,0
2096921,2096921,159798,666385,0
2096921,2096921,159982,666245,0
2096921,2096921,160031,666747,0
2096921,2096921,159799,666667,0
2096921,2096921,159850,666694,0
2096921,2096921,159910,666591,0
2096921,2096921,159876,666499,0
2096921,2096921,159869,666621,0
2096921,2096921,159615,666890,0
2096921,2096921,160017,666615,0
2096921,2096921,159978,666452,0
2096921,2096921,159906,666517,0
2096921,2096921,160037,667092,0
2096921,2096921,160293,666900,0
2096921,2096921,160139,667229,0
2096921,2096921,160201,667088,0
2096921,2096921,160087,667428,0
2096921,2096921,160148,667771,0
2096921,2096921,160213,667644,0
2096921,2096921,160220,667306,0
2096921,2096921,160162,667551,0
2096921,2096921,160206,667460,0
2096921,2096921,160541,668040,0
2096921,2096921,160422,667794,0
2096921,2096921,160357,667988,0
2096921,2096921,160288,667674,0
2096921,2096921,160385,668174,0
2096921,2096921,160299,668069,0
2096921,2096921,160595,668429,0
2096921,2096921,160409,668594,0
2096921,2096921,160586,668488,0
2096921,2096921,160500,668423,0
2096921,2096921,160578,668977,0
2096921,2096921,160927,669064,0
2096921,2096921,160779,669011,0
2096921,2096921,160617,669386,0
2096921,2096921,160758,669032,0
2096921,2096921,160651,669533,0
2096921,2096921,161105,669621,0
2096921,2096921,160946,670018,0
2096921,2096921,161265,669501,0
2096921,2096921,161048,669630,0
2096921,2096921,161317,670036,0
2096921,2096921,161347,670498,0
2096921,2096921,161498,670355,0
2096921,2096921,161347,670699,0
2096921,2096921,161378,670408,0
2096921,2096921,161085,671037,0
2096921,2096921,161404,671123,0
2096921,2096921,161228,671043,0
2096921,2096921,161345,671129,0
2096921,2096921,161366,670944,0
2096921,2096921,161645,671895,0
2096921,2096921,161680,672003,0
2096921,2096921,161426,671857,0
2096921,2096921,161874,671859,0
2096921,2096921,161780,671844,0
2096921,2096921,161817,672409,0
2096921,2096921,162010,672434,0
2096921,2096921,162128,672744,0
2096921,2096921,162022,672448,0
2096921,2096921,161946,672413,0
2096921,2096921,162309,672911,0
2096921,2096921,162624,673099,0
2096921,2096921,162186,673152,0
2096921,2096921,162027,673572,0
2096921,2096921,162174,673354,0
2096921,2096921,162366,673877,0
2096921,2096921,162368,673906,0
2096921,2096921,162650,674031,0
2096921,2096921,162274,673824,0
2096921,2096921,162557,673853,0
2096921,2096921,162822,674481,0
2096921,2096921,162900,674335,0
2096921,2096921,162822,674676,0
2096921,2096921,162571,674380,0
2096921,2096921,162634,674361,0
2096921,2096921,163134,675026,0
2096921,2096921,163074,675331,0
2096921,2096921,162922,675195,0
2096921,2096921,162966,675568,0
2096921,2096921,163388,675207,0
2096921,2096921,163316,675684,0
2096921,2096921,162984,676186,0
2096921,2096921,163183,676001,0
2096921,2096921,163171,676144,0
2096921,2096921,163305,676114,0
2096921,2096921,163369,676538,0
2096921,2096921,163666,677045,0
2096921,2096921,163013,676725,0
2096921,2096921,163380,676672,0
2096921,2096921,163313,676776,0
2096921,2096921,163820,677389,0
2096921,2096921,163684,677728,0
2096921,2096921,164021,677537,0
2096921,2096921,163727,677597,0
2096921,2096921,163807,677372,0
2096921,2096921,163905,677904,0
2096921,2096921,164018,678038,0
2096921,2096921,163894,678114,0
2096921,2096921,163817,678234,0
2096921,2096921,163683,678008,0
2096921,2096921,164164,678286,0
2096921,2096921,164326,678538,0
2096921,2096921,163932,678754,0
2096921,2096921,164218,678748,0
2096921,2096921,164156,678324,0
2096921,2096921,164121,678974,0
2096921,2096921,164026,679071,0
2096921,2096921,164288,679070,0
2096921,2096921,164266,678988,0
2096921,2096921,164373,678986,0
2096921,2096921,164482,679433,0
2096921,2096921,164433,679542,0
2096921,2096921,164580,679609,0
2096921,2096921,164252,679520,0
2096921,2096921,164328,679823,0
2096921,2096921,164524,680006,0
2096921,2096921,164320,679992,0
2096921,2096921,164343,679931,0
2096921,2096921,164455,679972,0
2096921,2096921,164699,679961,0
2096921,2096921,164708,680027,0
2096921,2096921,164738,679955,0
2096921,2096921,164568,680285,0
2096921,2096921,164776,680126,0
2096921,2096921,164708,680125,0
2096921,2096921,164808,680201,0
2096921,2096921,164810,680375,0
2096921,2096921,164519,680231,0
2096921,2096921,164491,680431,0
2096921,2096921,164586,680552,0
2096921,2096921,164854,680479,0
2096921,2096921,164578,680453,0
2096921,2096921,164544,680604,0
2096921,2096921,164719,680440,0
2096921,2096921,164992,680526,0
2096921,2096921,164648,680753,0
2096921,2096921,164666,680841,0
2096921,2096921,164721,680770,0
2096921,2096921,164784,680939,0
2096921,2096921,164461,680452,0
2096921,2096921,164518,680697,0
2096921,2096921,164742,680804,0
2096921,2096921,164790,680961,0
2096921,2096921,164535,680794,0
2096921,2096921,164757,681011,0
2096921,2096921,164587,681113,0
2096921,2096921,164545,681002,0
2096921,2096921,164525,681062,0
2096921,2096921,164589,681023,0
2096921,2096921,164773,680949,0
2096921,2096921,164855,681047,0
2096921,2096921,164721,681469,0
2096921,2096921,164710,681252,0
2096921,2096921,164797,681807,0
2096921,2096921,164688,681190,0
2096921,2096921,164702,681600,0
2096921,2096921,164685,681616,0
2096921,2096921,164445,681725,0
2096921,2096921,164758,681691,0
2096921,2096921,165023,681753,0
2096921,2096921,164880,681960,0
2096921,2096921,164815,681999,0
2096921,2096921,164871,681947,0
2096921,2096921,164934,682005,0
2096921,2096921,165022,682339,0
2096921,2096921,165098,682465,0
2096921,2096921,165093,682479,0
2096921,2096921,165192,682487,0
2096921,2096921,164997,682107,0
2096921,2096921,165013,682433,0
2096921,2096921,165165,682681,0
2096921,2096921,165006,682892,0
2096921,2096921,164906,682822,0
2096921,2096921,165255,682923,0
2096921,2096921,165226,682808,0
2096921,2096921,165277,683280,0
2096921,2096921,165182,683348,0
2096921,2096921,165330,683442,0
2096921,2096921,165380,683146,0
2096921,2096921,165252,683274,0
2096921,2096921,165540,683470,0
2096921,2096921,165349,683699,0
2096921,2096921,165823,684078,0
2096921,2096921,165674,684105,0
2096921,2096921,165888,684012,0
2096921,2096921,165809,684420,0
2096921,2096921,165989,684419,0
2096921,2096921,165448,684656,0
2096921,2096921,165771,684304,0
2096921,2096921,165772,684366,0
2096921,2096921,165771,684689,0
2096921,2096921,166059,684905,0
2096921,2096921,166012,684897,0
2096921,2096921,166033,685019,0
2096921,2096921,166081,684848,0
2096921,2096921,166065,685294,0
2096921,2096921,165967,685235,0
2096921,2096921,166249,685535,0
2096921,2096921,165944,685352,0
2096921,2096921,165801,685606,0
2096921,2096921,165992,685777,0
2096921,2096921,166407,686015,0
2096921,2096921,166150,685626,0
2096921,2096921,166021,685967,0
2096921,2096921,165919,686193,0
2096921,2096921,166148,686260,0
2096921,2096921,166418,686272,0
2096921,2096921,166493,686247,0
2096921,2096921,166335,686296,0
2096921,2096921,166385,686192,0
2096921,2096921,166510,686909,0
2096921,2096921,166610,686686,0
2096921,2096921,166423,686910,0
2096921,2096921,166692,687106,0
2096921,2096921,166712,686897,0
2096921,2096921,166868,687288,0
2096921,2096921,166569,687555,0
2096921,2096921,166714,687190,0
2096921,2096921,166617,687386,0
2096921,2096921,166980,687262,0
2096921,2096921,167197,687802,0
2096921,2096921,166970,687727,0
2096921,2096921,166738,687631,0
2096921,2096921,166979,687947,0
2096921,2096921,167113,687978,0
2096921,2096921,167256,688057,0
2096921,2096921,167271,688245,0
2096921,2096921,166787,687977,0
2096921,2096921,167018,688186,0
2096921,2096921,166943,688090,0
2096921,2096921,167216,688465,0
2096921,2096921,167231,688420,0
2096921,2096921,167495,688659,0
2096921,2096921,167470,688531,0
2096921,2096921,167387,688595,0
2096921,2096921,167306,688900,0
2096921,2096921,167611,688916,0
2096921,2096921,167272,688992,0
2096921,2096921,167132,689052,0
2096921,2096921,167118,689057,0
2096921,2096921,167250,689133,0
2096921,2096921,167242,689430,0
2096921,2096921,167659,689232,0
2096921,2096921,167834,689515,0
2096921,2096921,167684,689364,0
2096921,2096921,167498,689627,0
2096921,2096921,167461,689740,0
2096921,2096921,167599,689880,0
2096921,2096921,167882,689700,0
2096921,2096921,167850,689956,0
2096921,2096921,167932,690065,0
2096921,2096921,167895,689918,0
2096921,2096921,167748,689782,0
2096921,2096921,168099,689850,0
2096921,2096921,167820,690249,0
2096921,2096921,167850,690563,0
2096921,2096921,167771,690730,0
2096921,2096921,167901,690663,0
2096921,2096921,167679,690670,0
2096921,2096921,167819,690365,0
2096921,2096921,167922,690522,0
2096921,2096921,167782,690943,0
2096921,2096921,167993,690777,0
2096921,2096921,168309,690887,0
2096921,2096921,168093,690904,0
2096921,2096921,168291,690772,0
2096921,2096921,168032,691120,0
2096921,2096921,168340,691114,0
2096921,2096921,168102,690852,0
2096921,2096921,168246,690948,0
2096921,2096921,168255,691199,0
2096921,2096921,168324,691289,0
2096921,2096921,168369,691446,0
2096921,2096921,168239,691387,0
2096921,2096921,168518,691578,0
2096921,2096921,168284,691663,0
2096921,2096921,168331,691725,0
2096921,2096921,168113,691597,0
2096921,2096921,168271,691818,0
2096921,2096921,167970,691375,0
2096921,2096921,168237,691782,0
2096921,2096921,168697,692293,0
2096921,2096921,168687,692332,0
2096921,2096921,168590,691830,0
2096921,2096921,168515,692227,0
2096921,2096921,168531,692145,0
2096921,2096921,168718,692128,0
2096921,2096921,168512,692226,0
2096921,2096921,168647,691941,0
2096921,2096921,168485,692199,0
2096921,2096921,168731,692332,0
2096921,2096921,168438,692669,0
2096921,2096921,168555,692625,0
2096921,2096921,168523,692748,0
2096921,2096921,168473,692604,0
2096921,2096921,168582,692701,0
2096921,2096921,168581,692670,0
2096921,2096921,168787,692649,0
2096921,2096921,168597,692785,0
2096921,2096921,168884,692835,0
2096921,2096921,168522,693012,0
2096921,2096921,168697,692648,0
2096921,2096921,168689,692825,0
2096921,2096921,169135,692932,0
2096921,2096921,168664,692792,0
2096921,2096921,168969,693115,0
2096921,2096921,168452,693053,0
2096921,2096921,168728,693192,0
2096921,2096921,168394,692986,0
2096921,2096921,168816,693001,0
2096921,2096921,168720,693066,0
2096921,2096921,168746,693160,0
2096921,2096921,168958,693262,0
2096921,2096921,169216,693527,0
2096921,2096921,169199,693468,0
2096921,2096921,169180,693493,0
2096921,2096921,169004,693296,0
2096921,2096921,168540,693755,0
2096921,2096921,168912,693405,0
2096921,2096921,168867,693344,0
2096921,2096921,169031,693327,0
2096921,2096921,168933,693314,0
2096921,2096921,168975,693622,0
2096921,2096921,169010,693761,0
2096921,2096921,168938,693765,0
2096921,2096921,169266,694022,0
2096921,2096921,169135,693997,0
2096921,2096921,169075,693825,0
2096921,2096921,168957,693670,0
2096921,2096921,169171,693615,0
2096921,2096921,169357,693783,0
2096921,2096921,169210,693938,0
2096921,2096921,169182,693891,0
2096921,2096921,169154,694029,0
2096921,2096921,169240,694028,0
2096921,2096921,169296,694178,0
2096921,2096921,169355,694038,0
2096921,2096921,169153,693890,0
2096921,2096921,169323,694003,0
2096921,2096921,169373,693839,0
2096921,2096921,169214,694030,0
2096921,2096921,169128,694005,0
2096921,2096921,169053,694107,0
2096921,2096921,169283,694221,0
2096921,2096921,169237,694121,0
2096921,2096921,169193,694330,0
2096921,2096921,169203,694209,0
2096921,2096921,169475,693969,0
2096921,2096921,169128,694233,0
2096921,2096921,169273,694059,0
2096921,2096921,169389,694368,0
2096921,2096921,169413,694020,0
2096921,2096921,169301,694167,0
2096921,2096921,169316,694369,0
2096921,2096921,169059,694486,0
2096921,2096921,169479,694574,0
2096921,2096921,169403,694721,0
2096921,2096921,169256,694377,0
2096921,2096921,169180,694261,0
2096921,2096921,169213,694395,0
2096921,2096921,169404,694185,0
2096921,2096921,169205,694402,0
2096921,2096921,169271,694553,0
2096921,2096921,169055,694517,0
2096921,2096921,169387,694722,0
2096921,2096921,169386,694557,0
2096921,2096921,169436,694961,0
2096921,2096921,169354,694945,0
2096921,2096921,169627,694500,0
2096921,2096921,169059,694560,0
2096921,2096921,169304,694570,0
2096921,2096921,169023,694505,0
2096921,2096921,169458,694529,0
2096921,2096921,169384,694604,0
2096921,2096921,169663,694481,0
2096921,2096921,169512,694890,0
2096921,2096921,169245,694797,0
2096921,2096921,169348,694656,0
2096921,2096921,169326,694462,0
2096921,2096921,169417,694809,0
2096921,2096921,169240,694755,0
2096921,2096921,169544,694666,0
2096921,2096921,169493,694617,0
2096921,2096921,169842,695034,0
2096921,2096921,169522,694899,0
2096921,2096921,169764,694934,0
2096921,2096921,169504,694796,0
2096921,2096921,169582,694819,0
2096921,2096921,169491,694741,0
2096921,2096921,169266,694607,0
2096921,2096921,169730,694506,0
2096921,2096921,169519,694556,0
2096921,2096921,169312,694899,0
2096921,2096921,169209,694658,0
2096921,2096921,169474,694972,0
2096921,2096921,169394,694713,0
2096921,2096921,169536,694833,0
2096921,2096921,169357,694651,0
2096921,2096921,169210,694819,0
2096921,2096921,169546,694844,0
2096921,2096921,169390,694720,0
2096921,2096921,169449,694639,0
2096921,2096921,169739,694873,0
2096921,2096921,169553,694600,0
2096921,2096921,169427,694793,0
2096921,2096921,169608,694705,0
2096921,2096921,169462,694669,0
2096921,2096921,169230,694849,0
2096921,2096921,169528,694631,0
2096921,2096921,169401,694614,0
2096921,2096921,169430,694819,0
2096921,2096921,169353,694838,0
2096921,2096921,169439,694716,0
2096921,2096921,169667,694628,0
2096921,2096921,169541,694827,0
2096921,2096921,169612,694652,0
2096921,2096921,169710,694861,0
2096921,2096921,169387,695097,0
2096921,2096921,169629,694928,0
2096921,2096921,169648,694826,0
2096921,2096921,169495,695013,0
2096921,2096921,169411,694913,0
2096921,2096921,169502,694822,0
2096921,2096921,169537,695013,0
2096921,2096921,169756,694865,0
2096921,2096921,169629,695104,0
2096921,2096921,169674,694747,0
2096921,2096921,169388,694867,0
2096921,2096921,169260,694922,0
2096921,2096921,169474,694777,0
2096921,2096921,169679,694686,0
2096921,2096921,169462,694796,0
2096921,2096921,169632,694808,0
2096921,2096921,169522,694896,0
2096921,2096921,169425,694837,0
2096921,2096921,169464,694880,0
2096921,2096921,169621,695026,0
2096921,2096921,169375,694755,0
2096921,2096921,169413,694642,0
2096921,2096921,169256,694853,0
2096921,2096921,169513,694397,0
2096921,2096921,169356,694317,0
2096921,2096921,169336,694366,0
2096921,2096921,169431,694455,0
2096921,2096921,169373,694310,0
2096921,2096921,168876,694157,0
2096921,2096921,169302,694341,0
2096921,2096921,169292,694136,0
2096921,2096921,169099,694117,0
2096921,2096921,168974,694071,0
2096921,2096921,169229,693750,0
2096921,2096921,168722,693897,0
2096921,2096921,169070,693793,0
2096921,2096921,169130,693810,0
2096921,2096921,169053,693639,0
2096921,2096921,168899,693243,0
2096921,2096921,168772,692987,0
2096921,2096921,168606,692810,0
2096921,2096921,168463,693088,0
2096921,2096921,168505,692694,0
2096921,2096921,168328,692143,0
2096921,2096921,168465,692015,0
2096921,2096921,168274,692100,0
2096921,2096921,168264,692137,0
2096921,2096921,168223,692347,0
2096921,2096921,167860,690762,0
2096921,2096921,167477,690743,0
2096921,2096921,167438,690520,0
2096921,2096921,167487,690686,0
2096921,2096921,167307,690796,0
2096921,2096921,166550,689090,0
2096921,2096921,166650,688374,0
2096921,2096921,166505,688393,0
2096921,2096921,166445,688506,0
2096921,2096921,166643,688474,0
2096921,2096921,165621,687343,0
2096921,2096921,165659,687120,0
2096921,2096921,165919,686784,0
2096921,2096921,165570,686706,0
2096921,2096921,165766,687015,0
2096921,2096921,165343,686017,0
2096921,2096921,165151,685551,0
2096921,2096921,165307,685682,0
2096921,2096921,165108,685443,0
2096921,2096921,165201,685837,0
2096921,2096921,164817,684800,0
2096921,2096921,164798,685036,0
2096921,2096921,164813,684679,0
2096921,2096921,164954,684712,0
2096921,2096921,164769,684446,0
2096921,2096921,164523,684112,0
2096921,2096921,164477,683939,0
2096921,2096921,164482,683996,0
2096921,2096921,164445,684063,0
2096921,2096921,164727,684089,0
2096921,2096921,164557,683523,0
2096921,2096921,164303,683512,0
2096921,2096921,164359,683415,0
2096921,2096921,164151,683291,0
2096921,2096921,163993,683436,0
2096921,2096921,164234,683153,0
2096921,2096921,164056,683244,0
2096921,2096921,163984,683170,0
2096921,2096921,163961,683513,0
2096921,2096921,164268,683122,0
2096921,2096921,164004,683216,0
2096921,2096921,163974,683115,0
2096921,2096921,163913,683414,0
2096921,2096921,164147,683229,0
2096921,2096921,163869,682991,0
2096921,2096921,164095,683273,0
2096921,2096921,164016,683091,0
2096921,2096921,164281,683122,0
2096921,2096921,164331,682995,0
2096921,2096921,164347,683166,0
2096921,2096921,164456,683280,0
2096921,2096921,164404,683351,0
2096921,2096921,164418,683379,0
2096921,2096921,164145,683508,0
2096921,2096921,164108,683169,0
2096921,2096921,163961,682882,0
2096921,2096921,164150,683466,0
2096921,2096921,164045,683146,0
2096921,2096921,164211,683405,0
2096921,2096921,164260,683141,0
2096921,2096921,164431,683767,0
2096921,2096921,164400,683613,0
2096921,2096921,164496,683424,0
2096921,2096921,164125,683425,0
2096921,2096921,164164,683349,0
2096921,2096921,164297,683626,0
2096921,2096921,164732,683702,0
2096921,2096921,164582,683537,0
2096921,2096921,164580,683584,0
2096921,2096921,164258,683646,0
2096921,2096921,164752,683929,0
2096921,2096921,164597,684067,0
2096921,2096921,165051,683839,0
2096921,2096921,164551,684100,0
2096921,2096921,164834,683804,0
2096921,2096921,164763,684113,0
2096921,2096921,164784,684245,0
2096921,2096921,164785,684253,0
2096921,2096921,164755,684206,0
2096921,2096921,164958,683985,0
2096921,2096921,164728,684271,0
2096921,2096921,164945,684422,0
2096921,2096921,164597,684251,0
2096921,2096921,164590,684463,0
2096921,2096921,164729,684257,0
2096921,2096921,165119,684367,0
2096921,2096921,165052,684803,0
2096921,2096921,165182,684722,0
2096921,2096921,165009,684613,0
2096921,2096921,165159,684771,0
2096921,2096921,165074,684810,0
2096921,2096921,164949,685135,0
2096921,2096921,164844,685182,0
2096921,2096921,165348,685486,0
2096921,2096921,165244,685003,0
2096921,2096921,165325,685192,0
2096921,2096921,165335,685015,0
2096921,2096921,165575,685168,0
2096921,2096921,165306,685430,0
2096921,2096921,165345,685359,0
2096921,2096921,165338,685528,0
2096921,2096921,165477,685460,0
2096921,2096921,165466,685479,0
2096921,2096921,165541,685166,0
2096921,2096921,165306,685449,0
2096921,2096921,165260,685614,0
2096921,2096921,165417,685954,0
2096921,2096921,165636,685680,0
2096921,2096921,165798,685632,0
2096921,2096921,165664,685642,0
2096921,2096921,165858,685977,0
2096921,2096921,165890,685838,0
2096921,2096921,165461,686189,0
2096921,2096921,165600,686106,0
2096921,2096921,165752,686062,0
2096921,2096921,165854,686071,0
2096921,2096921,166107,686148,0
2096921,2096921,165705,686139,0
2096921,2096921,166124,686172,0
2096921,2096921,165689,686246,0
2096921,2096921,166145,686225,0
2096921,2096921,166018,686400,0
2096921,2096921,166107,686384,0
2096921,2096921,165872,686242,0
2096921,2096921,165999,686187,0
2096921,2096921,166023,686359,0
2096921,2096921,166198,686824,0
2096921,2096921,166127,686784,0
2096921,2096921,165926,686641,0
2096921,2096921,166128,686590,0
2096921,2096921,166013,686965,0
2096921,2096921,166214,686500,0
2096921,2096921,165898,686790,0
2096921,2096921,166132,686596,0
2096921,2096921,166082,686469,0
2096921,2096921,165974,686564,0
2096921,2096921,166217,686441,0
2096921,2096921,166236,686793,0
2096921,2096921,166253,686653,0
2096921,2096921,166246,686974,0
2096921,2096921,166112,686574,0
2096921,2096921,166173,686900,0
2096921,2096921,166254,686707,0
2096921,2096921,166202,686687,0
2096921,2096921,166210,686745,0
2096921,2096921,166335,686619,0
2096921,2096921,166254,686682,0
2096921,2096921,166218,686490,0
2096921,2096921,166398,686619,0
2096921,2096921,166437,686703,0
2096921,2096921,166362,686592,0
2096921,2096921,166122,686351,0
2096921,2096921,166446,686601,0
2096921,2096921,166391,686282,0
2096921,2096921,166098,686200,0
2096921,2096921,166318,686029,0
2096921,2096921,166263,686563,0
2096921,2096921,166155,686246,0
2096921,2096921,165960,686419,0
2096921,2096921,166232,686042,0
2096921,2096921,165807,686080,0
2096921,2096921,165932,685876,0
2096921,2096921,166088,686069,0
2096921,2096921,165875,686078,0
2096921,2096921,166123,685592,0
2096921,2096921,166065,685524,0
2096921,2096921,166127,685719,0
2096921,2096921,166123,685634,0
2096921,2096921,166253,685652,0
2096921,2096921,165944,685618,0
2096921,2096921,165817,685508,0
2096921,2096921,165849,685137,0
2096921,2096921,165821,685230,0
2096921,2096921,165620,685115,0
2096921,2096921,165737,685124,0
2096921,2096921,165729,684995,0
2096921,2096921,165447,684739,0
2096921,2096921,165566,684671,0
2096921,2096921,165877,684518,0
2096921,2096921,165792,684681,0
2096921,2096921,165634,684511,0
2096921,2096921,165840,684616,0
2096921,2096921,165578,684583,0
2096921,2096921,165597,684347,0
2096921,2096921,165611,684616,0
2096921,2096921,165626,684116,0
2096921,2096921,165587,684126,0
2096921,2096921,165705,684074,0
2096921,2096921,165535,684299,0
2096921,2096921,165547,684014,0
2096921,2096921,165219,683860,0
2096921,2096921,165353,683877,0
2096921,2096921,165460,683842,0
2096921,2096921,165512,683736,0
2096921,2096921,165492,683903,0
2096921,2096921,165442,683706,0
2096921,2096921,165338,683604,0
2096921,2096921,165352,683604,0
2096921,2096921,165557,683720,0
2096921,2096921,165416,683658,0
2096921,2096921,165342,683346,0
2096921,2096921,165486,683626,0
2096921,2096921,165281,683506,0
2096921,2096921,165050,683494,0
2096921,2096921,165259,683552,0
2096921,2096921,165169,683423,0
2096921,2096921,165257,683408,0
2096921,2096921,165407,683221,0
2096921,2096921,165252,683146,0
2096921,2096921,165180,683069,0
2096921,2096921,165407,683307,0
2096921,2096921,165098,683273,0
2096921,2096921,165225,683499,0
2096921,2096921,165234,683325,0
2096921,2096921,165462,683466,0
2096921,2096921,165280,683273,0
2096921,2096921,165698,683200,0
2096921,2096921,165170,683372,0
2096921,2096921,165824,683274,0
2096921,2096921,165468,683521,0
2096921,2096921,165648,683355,0
2096921,2096921,165372,683360,0
2096921,2096921,165395,683442,0
2096921,2096921,165518,683792,0
2096921,2096921,165324,683520,0
2096921,2096921,165716,683183,0
2096921,2096921,165389,683108,0
2096921,2096921,165549,683228,0
2096921,2096921,165631,683111,0
2096921,2096921,165407,683126,0
2096921,2096921,165193,682941,0
2096921,2096921,165367,683289,0
2096921,2096921,165413,683124,0
2096921,2096921,165346,683085,0
